-2	15	6	-4	-8	-16	-85	-95
-36	-41	24	-8	-15	-99	-88	-6
-10	29	-17	8	13	99	72	44
41	-10	-27	-6	-4	-11	-17	-34
-1	6	6	-6	-6	-31	1	-61
5	-5	7	3	15	49	5	-14
-24	-9	10	-6	-13	-64	-58	-57
-33	-11	8	-8	-45	-20	-40	-27
5	-2	-6	10	16	-19	46	52
-2	9	84	1	1	51	-95	10
70	0	2	-2	10	-26	112	110
-53	-16	-57	-9	-2	39	-32	-82
43	6	-60	16	45	24	92	89
16	42	24	13	-1	6	-45	-67
55	-15	23	-4	8	71	34	-89
-21	9	63	-20	-18	-112	-124	-92
10	-25	28	4	-14	21	22	96
5	15	-50	-6	-3	29	53	76
-20	13	11	3	-6	-58	-77	-65
-1	16	14	3	4	28	40	-9
-18	-28	26	-7	7	7	-68	-46
10	5	-5	0	-8	-16	41	-15
3	-1	-3	-2	-13	8	-17	-17
0	6	10	1	1	24	42	32
-17	-4	54	-3	-15	-32	-87	-5
-44	-15	-10	-3	-7	-9	84	8
84	19	-48	12	32	48	20	79
64	33	-46	4	13	13	96	-70
-6	-7	30	-5	-20	5	-21	-18
39	-53	1	9	24	26	13	92
-34	25	28	9	-7	-119	0	84
2	-25	30	-9	-3	76	-86	-95
-17	61	6	-16	-5	19	46	8
-18	-4	-21	-1	-11	-83	-74	-85
-27	-25	9	-2	0	52	-26	-28
-18	-12	-25	8	-2	-34	28	76
-6	-6	0	1	1	-5	-22	-40
0	7	0	-10	-14	45	45	13
1	-2	-8	1	0	-41	-22	-58
-90	10	27	-8	-20	-43	-118	-117
39	-14	10	8	0	59	86	-80
69	17	-69	7	21	-66	94	98
4	13	7	7	15	96	-63	-50
-23	-56	9	-17	-23	-84	-37	-1
50	6	-59	13	29	36	73	106
-52	7	21	5	6	15	-110	-66
11	-11	-24	-11	-16	-13	-33	-96
-20	13	-5	0	3	-42	-23	33
-19	-72	-6	-8	1	-8	-69	-6
6	25	3	0	-26	22	10	5
-37	13	23	-8	3	-36	18	4
17	8	-11	11	3	76	21	34
-12	1	-17	-10	3	-63	-16	-9
19	9	18	-1	-5	40	-26	-85
-76	-17	48	-20	-41	-33	-71	51
52	9	-23	22	30	-21	110	105
-4	0	-59	6	24	60	105	-66
67	3	-25	5	21	74	66	56
27	21	49	7	3	-39	-53	-16
-44	-28	15	-19	-21	-21	-65	-87
29	-7	-54	-10	-15	-53	43	104
30	36	28	4	16	5	-59	1
-16	-39	-37	-6	0	82	77	-12
24	13	18	3	0	0	-77	-51
-35	-25	39	-1	-11	-53	-56	-38
-21	3	-11	-3	-7	-35	-14	-63
4	6	-18	-6	7	36	1	-8
-18	-9	0	0	13	-3	5	-17
9	7	32	2	-31	-10	-56	50
-13	-11	-21	-5	-7	-23	-67	51
-56	-20	36	0	2	-88	29	28
71	11	-14	3	20	111	117	54
-25	35	23	7	15	3	-98	-83
23	-34	-3	-8	-11	-52	77	53
-3	9	-20	4	1	-9	95	3
77	12	23	-5	8	34	39	13
-49	0	3	4	9	-9	-58	-50
-45	-12	36	-10	-21	-21	-96	-128
15	-32	4	2	-7	5	65	69
-4	-10	-14	-2	-6	0	27	99
21	26	10	-7	-2	15	-30	-26
-52	-17	11	0	7	-19	-33	-12
16	11	-13	-3	10	17	15	-24
-41	-13	-3	12	-3	38	-28	-36
21	3	-3	-6	-15	22	4	10
-46	21	0	-12	-30	-78	-76	-45
40	-31	-12	8	8	18	34	73
-33	-1	-29	-4	6	-34	-1	-2
31	20	25	12	24	-14	55	86
58	5	-30	11	34	127	127	119
24	32	20	-5	-15	-71	-128	-39
-94	-32	15	-10	-28	-28	-17	10
-15	44	-23	10	29	12	7	-2
-26	-10	31	0	-13	-38	-29	-35
15	-5	-25	6	13	98	3	42
23	21	-7	-24	-16	-72	-37	26
-5	-51	-6	-5	-17	-33	-6	-31
-15	14	4	1	-4	47	-13	-20
-26	-27	-14	-7	1	-43	-53	-116
-2	14	-3	3	-16	-2	-27	-27
15	2	-1	-12	-28	-74	-23	33
-11	-5	2	5	18	34	32	-75
33	19	41	9	11	58	-23	72
-56	1	-44	-10	4	-11	64	40
57	-5	-51	7	23	-2	28	-92
-43	-8	12	1	-16	-3	-31	-52
66	19	18	-12	-28	-52	-14	-85
25	26	11	20	43	63	68	72
-32	-21	-3	-1	-4	47	-54	-99
-23	8	-32	16	48	67	91	26
-20	-41	-40	-17	-24	-64	-39	-83
39	-6	21	-6	-14	-23	-58	-43
-26	5	32	-9	-22	36	15	8
20	14	25	4	-13	-32	-50	56
-15	3	-4	-10	5	3	14	-31
1	1	-3	5	3	-31	-5	-25
-18	-31	-16	-1	-7	20	-2	41
12	16	37	-16	-18	-34	-93	-70
-44	3	-18	-1	-17	-36	60	114
52	0	-6	7	22	22	-5	-128
-1	2	-33	10	28	82	123	112
-10	11	59	-16	-26	-117	-78	88
39	-26	-96	8	29	72	109	10
-17	26	-33	16	21	32	-71	-5
-23	-16	11	0	-4	-8	-83	-85
12	-36	-8	-5	0	-78	-52	-86
-19	32	34	-7	-20	61	-23	-9
-9	3	-17	-7	7	24	13	60
19	-33	-23	5	-5	-78	-65	-27
-27	-9	-15	-7	-9	32	24	-44
17	-4	-9	5	-15	-40	-31	37
21	18	9	-24	-20	-28	18	-41
3	26	12	4	8	74	22	35
-11	-8	-9	3	-2	-6	-32	-82
-13	1	24	11	18	4	63	56
10	6	-32	7	-9	-36	60	87
-15	-28	-1	-9	-15	-44	-38	-60
20	3	-11	1	13	33	2	73
-17	-25	28	5	15	16	-100	-50
9	10	3	2	3	73	24	-28
-16	17	-13	-2	13	-34	-42	40
79	10	-27	-3	0	-22	83	64
-19	20	0	-12	-19	-10	-121	-91
-34	-41	38	-5	-9	-24	-15	36
1	35	14	-1	-22	0	95	4
7	-5	4	3	14	58	-8	-5
-20	10	-6	-3	11	-45	-20	-30
20	-27	44	0	-26	1	-118	-76
-77	-6	-29	-14	-2	-11	23	-102
18	25	-29	5	-7	-44	4	91
-28	-12	8	-9	1	62	63	-82
15	-13	-30	-4	-2	19	-5	-17
47	0	13	10	7	-84	-33	24
-20	-40	-22	-4	5	72	-31	-58
48	2	-47	16	21	-3	81	26
-54	8	25	-7	-4	-23	-114	-53
-19	3	14	-7	-17	-40	-31	-63
16	17	-14	3	-7	26	65	26
20	0	-1	5	26	6	-9	-18
-19	-15	6	1	-24	6	-3	-21
5	2	15	1	5	-16	-23	12
12	-5	15	2	7	-36	8	-24
-26	17	-6	-5	-17	28	7	26
16	12	-9	-1	7	1	11	67
-36	-9	69	0	-9	27	-73	-13
3	-9	-42	0	-2	2	89	102
81	14	12	4	2	-74	-55	-17
-22	20	37	-5	-20	-13	-77	65
62	-4	12	2	11	50	70	89
-99	-38	-24	-6	-4	26	-43	-57
-10	12	-37	7	0	3	114	19
64	17	-6	4	17	21	35	-77
-14	-4	8	3	-4	-92	-88	-3
-20	-18	42	-10	-17	66	-77	-119
-65	-7	-15	-5	6	-28	1	28
31	15	-12	1	0	-19	32	55
20	16	-30	-2	-10	48	15	16
-7	3	17	-1	4	-95	-31	-33
-19	-15	5	-7	2	97	-103	-128
4	9	5	19	8	-39	105	82
-27	-26	-63	-26	-25	-2	5	-34
35	45	5	11	6	-40	35	35
86	-8	46	3	4	72	14	41
-96	-14	-6	-4	17	-76	-24	-80
-23	-1	-37	16	26	119	112	8
83	10	-29	-8	-9	-21	-13	26
-17	44	30	-11	-20	-88	-76	-66
1	-21	-6	-6	-22	-15	-72	-31
1	-9	37	-3	-2	-1	-68	-25
-44	-32	14	3	9	62	74	25
-4	-1	-9	2	-6	-32	-68	-17
33	14	-7	2	-11	25	86	75
5	17	29	-1	22	21	-39	-58
-40	-6	-21	-4	-1	-44	-102	-54
-21	-9	-52	-3	-13	3	63	-5
11	-33	-71	-7	3	-5	-25	-128
12	25	-21	22	16	29	127	127
-23	15	28	-11	5	-45	-90	-72
3	-32	-14	1	-13	20	74	-5
50	17	-10	-1	-4	-17	17	-35
10	24	-23	-17	7	22	-45	-30
-32	8	-46	12	9	19	-18	57
-6	1	-3	5	3	-51	-52	11
-12	-7	14	-11	-10	1	9	33
7	-9	1	3	-10	9	-11	-23
0	-32	15	-4	-25	7	15	16
-5	-2	-14	0	11	12	-11	41
-11	-2	6	-6	-13	-57	-50	-15
-26	3	17	-2	5	19	-63	-63
47	-1	-16	-5	-1	11	112	59
16	8	24	4	8	-20	13	91
-76	-18	-34	0	22	89	21	-18
11	-3	36	4	-9	-41	-109	-42
86	9	-46	-2	6	11	118	103
-7	12	-2	-6	-2	28	-59	-39
-32	-11	25	5	-2	-40	25	-3
45	25	7	-8	-21	-112	-41	-39
-27	-9	37	8	-3	108	-87	-73
-22	-16	-17	-17	2	2	-1	-48
-32	-43	1	-1	-4	-15	-15	33
29	-2	-24	-1	11	72	97	66
-41	19	-8	0	1	-98	-38	-20
-22	-21	15	-5	24	21	-29	-31
-1	15	10	4	-19	15	-55	-111
2	-9	12	-10	-19	-16	22	90
-2	-11	67	-10	-21	-42	-80	51
-55	-10	-69	6	12	9	89	56
77	25	35	16	38	76	-61	-13
-78	-10	-29	-2	14	-18	89	76
68	31	-1	14	25	15	53	89
-34	-35	55	-16	-38	-14	-94	-97
17	14	13	1	14	-32	80	127
7	-13	-21	-4	-15	0	-78	-7
-20	15	0	-9	-15	6	-15	-114
7	23	17	11	5	-44	41	51
-25	-9	-17	-9	-4	29	-45	-91
9	2	20	7	-5	23	21	-46
2	-12	-4	-4	6	35	69	7
28	15	2	6	-1	-15	-44	0
-11	-10	16	-11	-23	-55	-64	-85
11	3	21	6	-2	-4	-8	-72
41	-26	-35	-16	2	25	24	71
-5	6	-62	7	-3	-26	-1	-94
-14	-5	-5	-3	-3	-2	-32	8
-10	-6	-39	1	25	-21	64	-1
28	13	25	4	-3	35	-124	30
35	17	-31	2	3	39	65	10
-62	20	-10	2	16	27	-32	96
10	-3	15	-14	-14	-118	-19	-25
-39	2	2	6	11	102	67	-41
-6	0	13	1	-9	16	-19	111
42	10	7	1	-22	-70	16	-1
-11	-18	22	-5	-5	64	-23	4
-45	-5	-1	9	14	-93	-59	-94
10	-1	12	-21	-30	12	25	26
-7	7	7	4	11	19	23	33
-18	-12	28	1	-1	-3	-29	55
19	-13	-25	-10	-14	-11	-18	-61
25	15	-15	13	28	33	68	62
53	-8	-2	3	0	4	0	-41
-39	30	-26	-2	19	-6	38	126
-98	-16	10	-7	-24	-9	-114	-41
38	-7	21	6	4	-84	69	66
-19	-16	-45	-10	6	102	-3	-128
61	7	-4	11	7	54	12	-69
-56	-6	-11	-5	-19	-79	-30	14
-7	1	21	-9	4	38	-73	-38
2	-5	0	-8	-14	-16	49	33
-6	-17	-8	0	-7	10	-22	-74
3	7	10	-13	-4	-36	1	-11
16	-17	36	-6	-12	8	-61	-77
17	-8	47	6	-2	-60	-5	109
0	2	-31	1	-3	58	43	23
19	0	-40	5	34	44	19	-54
-5	12	-45	-3	-4	-31	49	-90
-16	-14	-5	10	18	15	-80	33
63	-13	-7	-9	-15	-63	-12	2
-63	17	11	3	-16	19	-36	-28
64	4	-4	7	14	52	83	87
42	29	-70	1	34	-32	-11	-95
-12	-21	-10	-7	-32	-25	-76	1
32	-2	34	1	13	16	9	0
-54	-4	18	5	0	-14	-40	-51
-15	-4	4	-8	-14	47	18	-33
-6	0	20	4	2	-10	-25	-21
41	-17	-2	0	-7	-97	11	6
-44	-8	25	-13	-14	74	-15	49
44	19	-14	2	13	27	95	47
-24	-16	-3	2	21	-20	-51	-30
17	18	14	3	-33	2	69	14
-5	-19	10	-2	7	-5	-6	-9
1	4	20	-2	-8	-2	-38	84
0	8	5	2	-4	-30	-35	-107
-67	2	-7	2	16	23	100	-6
107	32	-14	9	20	22	60	55
-5	-4	14	-1	-22	-58	-23	-33
-31	8	29	-4	-10	90	-26	-30
77	-19	19	-1	7	-33	-123	-79
-52	-24	-3	-14	-24	-6	-13	-63
-8	38	-29	0	9	11	74	94
4	-54	-12	5	30	-32	-1	16
-1	-8	28	-2	-5	53	-8	-3
-37	-4	39	-7	-19	-10	-53	25
0	-8	-15	-7	-22	-53	-43	-68
13	11	45	-1	-3	11	10	67
-33	5	-12	-5	-1	-25	67	112
-8	-7	7	7	-2	7	-61	-65
11	-16	-14	-5	4	14	42	108
-4	20	20	-3	-15	21	-23	-89
50	4	-84	8	32	-14	111	-22
2	27	-21	13	6	5	50	72
1	-33	14	1	4	52	-79	-116
-22	2	49	-3	-7	-27	-54	-50
-2	-6	-26	-4	-8	18	-40	-39
-4	-15	-4	-9	-9	-114	-44	-49
42	-2	-7	8	5	112	113	33
11	-42	-47	-3	1	0	15	-6
-25	1	42	-8	7	-59	-66	-32
-25	-8	6	8	9	28	-56	-35
-25	-1	3	-12	-32	-38	-31	-33
3	24	-11	1	-5	-2	45	11
-16	2	-11	-1	-3	26	-3	-7
5	25	-3	-1	-13	-68	-47	24
32	19	66	-3	-5	-34	-97	-5
-53	-35	-62	-5	-6	73	50	-54
34	58	-35	16	42	48	114	81
4	-37	-8	-2	-20	-58	-121	56
-98	-20	11	-9	-5	-68	-62	-128
72	21	-53	11	21	58	104	60
60	5	-15	1	26	18	0	58
25	-25	7	-1	0	71	-62	-128
-81	14	-37	0	2	10	22	47
-19	-12	46	-12	-38	-124	-90	-20
-39	-15	36	-5	-28	59	-51	11
41	0	-43	6	22	13	87	51
3	-20	27	-5	-5	13	-49	8
-13	26	1	-1	4	-8	35	22
4	-9	-28	-11	-28	-61	-37	-20
-32	6	35	-5	-7	9	-29	-111
31	6	-18	9	24	62	111	8
11	22	-18	1	8	-31	20	110
-6	-13	24	8	6	34	9	-44
-6	21	27	-8	-15	-72	-48	-48
27	4	6	1	-4	23	-60	-99
16	-6	-25	1	-2	-11	51	23
-55	-30	-19	-17	-17	-2	-57	-101
3	41	-26	16	30	21	127	102
5	7	-44	7	5	23	-7	50
10	13	33	-12	11	-37	-78	-39
10	-9	34	-5	-23	-33	-85	-4
-72	-14	20	-15	-12	18	-70	-49
-6	-7	32	7	-5	-68	-39	-32
29	11	9	3	-10	73	67	84
-44	1	-42	1	23	30	16	-72
65	32	-3	5	10	23	83	127
12	-33	-15	1	-2	-26	-18	-36
12	1	54	-3	-15	-26	-92	-97
3	-12	-4	5	4	9	84	127
-8	4	-13	0	1	-36	38	13
-30	-7	13	-17	-12	18	-22	77
-43	-13	-30	4	13	29	-75	-72
55	11	25	9	-9	-78	43	-19
-21	-24	6	-5	1	107	7	-31
8	-11	23	6	34	-63	20	64
0	27	-10	-2	-43	-7	46	59
-10	-19	29	4	19	45	-42	-32
72	2	-17	-10	-14	-92	15	90
-28	-13	-6	1	-1	60	22	53
-61	-18	2	-11	-2	-40	-80	-28
17	14	19	5	-17	-15	-66	-77
-29	-10	-20	-3	-5	12	77	53
46	25	-13	4	23	-16	-7	-73
26	-38	21	-3	-8	26	-10	28
26	14	-25	3	8	1	113	124
-18	20	5	7	23	34	-124	-59
12	-5	17	-6	-30	-96	-60	-112
-11	14	48	6	3	46	41	27
20	-21	46	-13	-5	19	-17	-63
9	-26	7	10	12	-15	6	-44
-8	23	-10	-4	-4	60	23	30
-7	-35	-10	-1	4	-55	-19	-47
-22	-13	40	-14	-15	-13	-60	13
16	10	-25	2	1	31	55	11
-17	23	-1	9	11	-29	-25	-32
-35	-43	-39	-6	-1	35	-82	-87
12	2	-74	5	-11	-32	31	86
-21	6	17	-5	-8	-56	22	61
-20	-21	-47	-9	-7	66	-13	-72
112	23	-17	6	22	-11	62	116
-56	29	0	12	22	7	84	38
-35	19	21	1	8	27	-63	-95
-34	6	-15	-5	-19	0	-23	-73
6	21	4	2	11	-17	-45	33
8	-12	4	-10	-32	-23	-49	-44
-9	-3	19	2	6	45	4	39
-2	-2	-4	-1	8	-28	24	-88
-24	5	-29	-3	-2	39	77	-9
-3	-1	16	-1	-12	-32	-96	-51
-5	-6	-1	-16	-31	-61	-6	-21
61	-3	25	11	7	16	15	26
4	-5	-49	3	25	-11	102	-28
-49	-3	20	20	16	55	-51	-9
0	-34	-35	-17	-25	13	26	-68
43	36	-39	-1	6	-71	28	127
2	-34	12	-1	-11	13	-105	-112
5	9	1	-4	12	83	23	-56
8	-34	-16	12	7	-74	-77	23
-20	-16	33	-10	-17	-6	-50	-14
-25	36	-6	-3	-16	-31	41	23
16	2	15	-1	12	-35	-68	-34
-20	-15	-2	-2	-6	65	30	-1
3	0	-1	-3	10	10	31	5
10	22	49	3	4	6	-74	15
-17	-7	-36	-7	-17	35	111	60
4	46	9	0	-4	-102	-95	-27
-23	-16	-28	-10	-24	22	-19	-86
29	18	-8	15	31	23	2	95
23	-1	0	12	17	-16	79	59
31	20	-30	-4	16	72	127	121
-9	-18	14	1	-6	-21	-92	-57
-98	-7	8	-23	-27	-102	7	-8
82	4	7	3	-10	84	-28	6
-24	-6	21	6	16	-23	-9	-87
-3	-16	17	-9	-10	-12	7	42
9	3	-3	1	15	33	14	-27
-3	1	-1	-2	-14	-20	-36	-14
1	2	18	-9	-13	-6	-14	-13
-16	-5	-1	-2	-1	-21	-24	-4
2	-12	-18	-4	-19	-31	-46	-68
-18	-3	50	-6	-12	9	-46	59
-19	-20	-9	-1	16	21	-29	34
-18	26	-54	1	8	-23	127	15
109	-6	-18	28	42	110	106	113
-59	18	-10	-9	10	-28	-41	-88
91	-30	11	-8	-21	-61	-7	68
-24	23	32	-1	-2	67	-39	13
-21	0	10	-14	-9	-61	-57	-68
-25	6	17	4	-6	-17	-37	-9
-16	-44	5	-9	-13	37	-12	-96
13	-25	-20	5	20	-3	66	47
1	16	-11	-2	-19	34	12	11
26	-16	-14	3	7	-62	-43	13
-62	3	-5	-7	-23	-30	-108	-95
23	-17	37	-4	-32	38	99	106
-43	-12	-37	4	17	70	3	-71
66	46	-31	10	30	-33	127	95
-54	24	-21	12	17	5	44	43
-30	-15	-16	12	26	16	-126	-55
-43	5	48	-19	-25	-43	-14	107
3	-44	4	-2	-19	-19	11	-20
-9	7	24	0	7	65	-40	-3
9	-12	-46	11	6	-71	33	-59
15	5	15	0	-2	52	23	4
-53	2	3	-4	-2	-21	-64	-95
12	-1	11	-2	-14	-40	21	45
-1	14	29	0	2	22	-40	-20
13	-9	32	3	-14	-42	-71	-33
-5	2	-15	-7	18	12	92	8
-12	-1	12	0	-22	28	-16	32
34	3	16	-8	-23	-29	-60	127
-60	-28	-58	-8	23	-20	89	-76
41	12	10	5	10	64	-18	-86
85	43	-27	12	33	10	114	68
-11	16	84	6	-7	-15	-76	38
-22	-32	-7	-4	-21	-34	45	61
46	-8	5	-5	-3	26	-15	39
17	4	-24	6	20	14	-67	-54
-37	6	-27	-4	-15	-36	-56	-63
36	7	35	4	-4	-34	-59	-23
-37	33	18	-10	-15	23	9	-33
-3	-16	-19	4	-4	-11	15	-38
4	12	-8	-7	8	-19	23	-1
-13	2	7	-8	-14	-5	-55	-2
-9	-30	-36	1	12	1	-1	-62
1	-6	2	-2	-17	33	-6	-81
19	-5	-24	-1	2	-16	22	47
-32	0	-49	7	12	-17	47	-37
42	3	21	5	20	72	57	123
4	8	51	-8	-25	-54	-85	-128
67	6	-50	11	39	58	127	48
20	-3	20	7	2	-59	-119	-15
-64	-22	-4	-22	-32	-3	3	-11
31	-6	-34	8	13	47	24	-40
7	17	7	-3	-2	-11	-29	-47
-14	18	-33	4	-12	-4	-44	23
-16	-24	33	-14	-21	-51	-78	-87
-20	-6	23	-2	0	8	7	11
-9	-10	-35	-5	-2	28	4	-24
12	17	-35	6	2	11	21	-1
-32	-9	59	-14	-46	-68	-128	64
-5	-24	-15	-11	-6	-45	32	-16
-16	24	-47	18	40	115	102	86
-12	5	72	-14	7	-60	-89	-71
-9	-17	-54	8	-12	23	127	127
-12	17	-30	1	13	-15	-54	23
-8	11	32	-8	-23	-54	-67	-102
66	22	-23	12	26	50	-3	82
-62	-4	-23	-10	0	-38	-81	-128
-7	-23	43	-7	9	-2	7	22
1	-30	-9	-1	-17	32	23	-46
-13	5	-8	3	5	3	5	1
22	1	4	-8	-13	-19	-41	-14
-12	-8	1	6	-13	-32	-16	15
-28	14	25	-10	-1	9	-47	-102
-12	-35	-40	-1	18	21	33	-30
62	36	-46	8	10	-5	38	69
-53	-40	-32	-5	4	-25	-29	-72
-47	-3	80	-6	-9	18	-40	-16
12	-7	-31	-5	-12	24	91	13
83	52	-11	23	38	33	34	-87
-60	-11	9	-8	-24	32	-9	-1
94	17	-18	11	-1	-63	-9	87
21	16	0	-1	13	14	55	59
-1	8	8	-4	10	49	3	45
28	0	-3	-1	3	-1	-58	-35
20	-11	-6	-9	-22	-37	-1	21
-7	28	27	-10	-18	-39	-58	3
19	-55	-12	11	12	-39	26	31
-22	28	23	-9	-9	79	-24	-39
-47	-30	-11	-13	-11	-23	-32	-42
56	6	-8	15	17	39	60	-16
-49	-4	26	-12	-4	-51	-93	-54
-37	-8	-14	-9	-27	-44	-39	-51
27	12	-23	12	29	31	97	10
7	3	20	7	4	60	104	11
-8	5	3	2	12	26	-57	-128
41	6	20	10	-4	-62	110	103
-17	3	34	-2	7	32	42	77
-31	-39	23	-4	-14	-2	-113	-110
7	-9	-30	1	-14	6	54	-12
31	17	5	1	7	-13	36	82
-14	-25	8	-1	-6	6	-18	2
14	0	9	-7	-4	5	29	20
-20	4	4	-10	5	-13	-60	0
7	13	8	12	27	-31	-37	8
-6	-19	-1	-16	-38	27	-15	-39
-25	-3	13	-2	0	-13	-38	18
-4	-7	24	9	-17	-40	-39	1
2	25	15	-11	-9	60	83	45
6	-17	-20	17	51	-22	31	59
38	13	16	-9	-11	23	23	59
-70	5	-6	3	5	-22	-48	11
38	-27	-5	3	-12	-9	-49	33
35	8	3	1	11	7	57	50
17	20	5	0	8	57	36	86
6	-48	14	7	-2	-15	-30	16
-26	6	-1	-12	-9	-9	-38	-93
-5	5	-2	-9	-16	-23	-36	62
-20	-16	-29	-5	-4	-12	-3	-70
9	30	-4	-7	-20	-24	-4	-54
-11	-17	18	12	16	-12	-64	-25
7	-14	9	-5	-8	17	27	-49
-19	-2	-16	8	18	6	27	59
4	11	10	0	0	21	-14	-78
12	19	22	-10	-23	-29	-52	66
-70	-24	-17	-22	-20	-53	-29	-121
86	-5	-50	16	30	83	36	71
-74	-6	23	0	3	-69	-35	-21
42	-23	-62	6	29	24	83	126
-18	27	23	10	4	-5	-128	40
-43	-17	-1	-23	-42	-97	-23	-72
66	21	-44	15	10	43	63	10
-13	-4	41	-5	15	7	-31	-43
-7	-17	-7	-3	3	38	2	114
-57	-6	-19	1	-10	23	19	-16
17	6	6	-5	-18	-30	-26	45
-24	-5	-11	-5	3	-11	-4	-65
19	6	11	6	1	-52	-61	-128
-28	-38	-22	-4	-7	43	-30	-17
8	18	-18	-18	2	-18	51	12
-14	-29	38	3	-28	-2	-60	20
27	-3	23	-14	-25	-29	-36	-42
-64	20	32	1	10	14	49	13
111	8	-69	3	38	77	127	127
13	21	-51	16	33	10	78	42
-82	-11	22	5	-10	-45	-98	1
-29	-10	83	-15	-34	-59	-128	-59
-23	-2	17	2	-2	80	6	-54
73	10	-15	11	34	-3	118	111
20	24	-1	-5	-8	19	34	-20
11	7	0	7	17	-2	-46	-55
-46	-29	29	-14	-25	0	-64	-70
-4	3	-19	-5	-17	0	-5	11
-8	5	-21	9	9	-22	27	2
2	15	16	-9	-11	-56	-61	-45
6	-4	23	-13	-19	6	-44	-86
-7	4	7	-3	-1	-8	66	43
14	13	-2	0	5	50	23	104
45	1	-79	11	20	-10	9	-8
-66	-17	3	-3	-7	14	46	92
10	21	49	-7	-4	25	-99	-54
6	5	-12	3	8	13	116	105
45	13	18	0	-11	-15	5	31
18	-21	-10	6	16	-23	-8	25
-38	-12	-4	5	2	-29	-33	-128
5	15	4	0	-17	59	-54	-52
67	10	-4	4	-6	-91	58	25
9	-2	-7	3	7	76	97	78
-25	22	-5	-4	-4	49	-11	-21
7	-23	34	-1	7	-28	-75	-54
-34	-6	7	-2	-15	-57	-13	-11
3	12	28	-9	-23	-43	-67	57
-30	9	-14	2	-7	-21	-4	-84
45	-1	-9	-8	1	58	87	-26
-55	22	17	2	14	29	-26	95
-40	-42	60	5	-6	-88	-74	-90
3	-30	-43	-18	-22	45	72	127
-31	-11	-86	6	22	-51	38	-29
-7	5	27	-6	5	47	-47	-92
76	46	24	3	0	17	-18	77
-17	-9	18	14	20	-87	4	-32
-52	-14	-15	0	-31	49	8	-112
28	5	16	-5	12	17	18	85
-61	-19	15	-7	-2	-41	-64	-73
18	-3	-1	2	-1	78	-2	-22
16	-12	-3	-4	18	-50	20	54
-16	18	1	5	-27	7	-44	-22
-2	-5	-3	-7	-4	29	-16	-78
-12	0	-3	-5	-6	-31	-9	13
13	7	-7	1	8	7	52	50
-17	-6	76	-1	-22	-39	-113	-2
-36	-14	-68	-17	4	-28	120	-10
0	17	-56	9	16	69	-61	20
21	-7	33	11	3	-89	-45	-16
-4	-30	-54	-5	13	85	127	92
6	11	-30	13	17	32	6	55
-61	-11	52	-9	-23	-82	-107	-74
10	-5	7	-11	-13	3	-81	-49
-17	-22	22	4	-11	14	-10	-105
31	2	-53	7	28	37	31	31
57	28	-45	7	20	-26	115	77
2	2	3	-10	-21	3	-70	-46
-8	-25	-1	-2	5	10	-10	-45
-11	-16	7	-1	-10	6	-21	1
17	-5	58	-22	-36	-29	-113	-98
-20	-4	-32	-5	3	-41	53	71
10	14	-5	18	13	74	-1	-2
86	-1	-10	-5	-2	-28	30	113
3	32	5	15	16	11	73	68
-60	-23	23	-16	-9	8	-65	-128
5	-22	-33	-5	-17	-99	43	107
12	19	5	6	-2	66	-67	-101
36	-17	-3	-5	6	-31	27	-6
9	15	7	13	13	92	29	-54
20	7	-36	-2	12	-35	51	-32
-40	-31	14	6	5	-31	-52	7
-14	0	8	-5	-28	11	-26	-61
7	17	6	-1	13	0	-12	8
-9	18	-5	-2	-8	16	-53	-105
54	3	31	-10	-17	29	112	-13
-30	4	-16	0	15	-36	17	111
-1	5	5	-3	-11	-16	-77	21
-29	-23	-29	-2	-2	-15	-29	-125
71	15	-29	-3	1	26	70	119
-34	0	1	2	2	-25	-6	52
55	28	34	-4	-14	-39	24	127
-14	-29	18	-5	17	97	-56	7
-41	6	-2	6	-1	-71	-123	-102
43	1	4	4	-15	-26	55	49
-50	-3	-7	1	10	59	-13	33
34	21	3	-11	-4	7	62	90
-34	1	11	10	14	-50	38	13
-3	-9	-4	2	0	58	-46	-16
-46	-10	21	-9	-44	-90	-104	-122
39	4	9	-9	-3	-11	76	-33
55	1	-43	13	26	79	84	106
-76	-4	1	0	13	12	-40	-77
16	-15	10	7	-3	-20	-56	-30
-31	-16	-7	-19	-39	-95	-119	-102
-39	26	-7	-2	-11	69	66	35
74	-57	-76	-2	28	30	-10	-90
4	-5	-18	15	42	34	127	28
-14	9	16	11	1	-67	-66	79
-40	-40	56	-16	-16	-66	-106	-67
32	14	35	-16	-37	77	-64	-69
-32	5	-15	3	19	-12	78	18
13	-12	-21	-2	-6	-16	18	15
-35	-6	53	6	-20	5	-8	-29
-1	4	48	-6	-3	-45	-28	36
31	-3	36	-7	-11	47	-26	-19
47	14	5	6	22	36	41	-14
-98	2	-15	-4	-15	-67	-29	-5
64	15	63	19	31	26	95	48
-17	25	-34	8	13	50	13	39
-84	10	-39	0	-5	-49	-27	-46
102	30	-15	8	5	19	29	64
-68	-21	-16	-16	-16	14	6	6
7	-18	-2	-1	-3	-62	-27	-74
-22	16	34	-9	-12	28	-39	67
22	-5	-20	2	-2	2	9	3
-7	24	-19	10	6	-76	-58	6
14	-39	5	-8	11	71	27	3
-18	8	-4	-7	-20	-5	1	-32
-24	-12	-11	-5	13	8	-31	-40
6	13	-11	-14	-20	0	4	21
-14	6	19	-6	-23	-128	-98	-46
17	-33	24	4	-12	90	-21	-25
-38	21	6	10	33	36	97	104
52	-9	-62	6	16	-37	-25	-113
-8	16	-13	0	-10	-61	-48	74
74	-31	-32	-5	1	2	90	-78
10	23	-21	16	40	75	61	88
17	-27	44	-3	-19	-54	-106	-48
12	-11	5	-2	-9	39	35	15
-32	23	24	-9	16	39	-16	49
-23	-1	1	-14	-21	-50	-104	-125
-14	2	2	14	5	-51	-3	28
16	8	-5	-12	-22	67	33	19
-1	-16	16	3	20	-12	43	75
7	7	5	-13	-28	-49	-55	-68
-38	3	18	-9	8	35	-37	-41
3	-3	25	1	-7	-58	-31	67
-72	6	-37	15	33	75	87	-64
89	22	-35	2	1	20	84	93
-4	-5	-18	-1	12	-24	-40	-3
29	-8	25	4	-3	12	-65	64
-35	2	-4	-9	-7	-67	-10	-14
-19	12	-4	3	-7	20	2	-67
-59	-5	-3	15	15	39	44	39
41	29	-47	-12	1	69	10	-24
-10	-36	15	4	-15	-128	-33	58
-23	-38	24	-7	-3	50	-58	-26
-16	-20	-16	-16	-19	37	9	-67
-34	-2	-4	9	-1	-54	23	9
35	36	17	-5	-9	-28	-44	26
-35	-7	-29	-14	-14	-22	5	-120
75	17	5	15	25	34	39	59
-8	-32	26	-8	0	46	-11	-14
22	23	35	0	-5	-88	-54	109
46	-28	24	5	-6	46	-43	1
-25	-7	-45	-1	8	24	98	43
-49	-2	-30	11	31	-8	51	0
4	-20	-7	2	-9	12	-38	6
16	11	62	-15	-16	-53	-128	-54
-36	15	6	8	-14	-14	3	-16
12	1	-39	-4	-13	57	83	-62
78	8	-12	2	39	60	86	44
-36	-2	5	4	1	-78	-43	-18
25	-24	-16	-14	-30	34	-23	-18
-15	24	35	-9	11	-79	-60	-2
6	0	-26	1	-12	57	-23	-88
-11	7	-40	11	7	24	89	47
4	12	28	-12	4	-34	10	96
53	15	38	-1	-21	-14	-91	15
-107	-28	-26	-13	-22	-17	-7	-35
0	16	29	13	17	-2	64	50
10	7	-18	-1	11	21	-22	-41
-20	-5	-8	7	9	27	68	-17
-8	-10	32	-4	-19	-62	-128	-82
89	-18	-3	-5	1	-50	49	26
-58	22	32	0	-5	84	-92	-117
61	-10	-8	6	4	-6	102	97
38	38	0	2	20	6	-8	-49
2	-12	14	19	13	29	0	37
-76	4	-17	-26	-23	-78	-80	-48
30	-12	3	-3	-8	53	77	82
-5	-3	-3	16	10	-46	-45	-53
-24	21	39	-28	-27	-67	-112	-97
-20	-4	30	0	-13	114	70	81
-71	13	-42	-1	15	-22	60	-45
94	-1	-33	-7	2	-22	47	101
-12	5	-1	-1	-3	-21	-50	-66
8	-1	66	8	-19	15	-11	44
-17	-13	-12	-15	-21	-91	-70	-128
-26	15	-28	20	42	122	127	127
5	-29	59	-10	-14	-8	-103	59
29	7	-45	9	9	-16	93	67
30	2	-5	18	32	43	-30	81
-44	-2	31	-11	-38	-20	-51	-68
-9	14	-5	2	21	11	-8	27
15	-24	45	-12	-9	-35	-18	-20
20	-3	5	3	-1	39	55	7
-25	-5	-68	-8	2	41	29	-10
-49	-17	-48	-3	-3	-17	26	-14
41	-2	0	12	-12	-76	-64	-30
-69	-17	28	-6	-8	-54	-103	-74
9	-11	43	-3	6	73	31	51
-25	-3	-15	-10	-18	34	7	-123
55	-1	-68	4	14	-22	72	91
40	18	-14	3	4	-12	9	87
14	-12	58	2	-11	-61	-73	-43
-57	-3	-28	0	29	84	70	38
-37	5	19	6	15	49	26	-6
3	0	10	3	-5	-71	16	-47
17	24	-27	-5	8	2	-19	37
31	-41	-9	-3	-12	-39	-58	-57
-85	-43	-23	-4	1	5	-50	44
7	-6	17	10	2	30	-30	-121
-2	-2	15	-8	-7	33	19	-49
17	4	-29	-3	-2	-44	77	127
21	17	-22	9	23	49	-14	-43
8	-22	-5	-7	-12	-30	-51	-108
10	-1	-1	16	-7	-44	0	19
-32	8	16	-25	-18	-28	-31	-14
80	-1	23	-4	8	41	34	-23
-44	0	26	4	-29	5	-93	91
-20	2	19	-6	-6	-63	-22	-100
81	13	-25	6	6	81	116	71
20	16	-44	2	19	-35	29	0
-6	11	13	5	16	36	89	98
-27	-21	77	1	-9	-9	-96	38
13	-21	-46	6	3	-32	82	77
-81	-10	-17	-6	-11	10	-75	-8
-5	16	-31	-2	11	47	13	29
42	17	8	5	-2	6	18	63
-16	0	54	-8	-20	-118	-128	-111
68	9	52	2	0	103	78	83
-34	-19	-64	-13	-1	-60	-27	-90
15	-10	-38	7	7	55	100	76
-8	33	32	4	10	30	-7	-27
-24	0	9	-6	-21	-115	-43	-47
-19	-20	48	-6	3	8	-108	18
17	8	-32	-3	-15	58	55	-10
-1	-43	13	10	1	19	32	108
-5	14	-17	-13	-8	-102	63	-111
83	-20	-13	-1	8	62	32	56
-85	-1	-4	-4	20	-66	-127	-120
31	22	34	7	-22	20	-73	70
96	3	-21	17	36	78	80	81
-14	29	4	2	9	-57	-67	7
29	19	24	-8	-10	-18	-43	-23
-94	-14	-12	-9	-10	3	-48	-52
-21	-3	22	8	-18	-33	-3	-9
3	-8	-1	-15	-5	31	37	64
13	39	7	-1	11	-8	22	16
-12	-29	-15	9	-16	-15	-47	-51
-18	-12	29	-12	-11	-6	-72	-49
-24	14	9	-7	1	10	1	-58
9	-29	-2	8	-31	-34	58	57
82	22	-12	4	31	73	121	61
-12	-4	-12	3	12	28	-56	23
26	16	-6	-12	-27	-69	-108	-128
-18	-17	-24	14	40	44	60	88
-39	-18	11	4	-19	-33	-64	-43
-19	16	-1	-1	-9	-17	6	-37
-16	-15	13	-2	-6	38	-41	-19
-19	-46	-31	-4	9	18	-38	-69
29	20	-9	9	15	-14	67	46
-9	25	24	-4	-26	9	-19	-40
-1	-8	34	-9	-12	-69	-54	74
3	-14	-43	-10	0	37	48	-41
-1	12	-31	4	10	20	-22	-31
-94	-24	70	-2	-14	-60	-128	-79
4	20	-67	-1	-7	20	127	-51
90	6	-40	-2	7	20	11	68
-81	47	-40	-8	13	3	40	-13
9	-3	-9	7	13	-62	-23	70
-60	1	64	6	-6	105	5	-55
-51	-73	-17	-10	11	-36	2	68
18	16	-52	6	-17	11	-23	-78
7	-20	12	-14	-10	-81	-18	-13
-7	-15	8	2	-9	-5	-70	-10
1	33	57	-5	-29	2	-33	-63
15	-9	14	9	22	70	42	34
-9	-15	-15	-8	-3	-35	-43	52
-9	-18	-34	-1	-3	-15	11	-58
-33	12	-53	3	0	-22	-21	-120
64	-1	-15	-10	3	15	31	85
99	18	-7	2	-2	2	51	-75
-45	-21	-41	9	36	48	58	43
-41	35	33	7	0	-24	-117	-54
-38	-16	56	-15	-24	-84	-55	15
28	-4	-57	-7	3	37	110	51
45	30	5	6	22	14	60	70
-17	-22	25	15	1	4	-50	-19
-17	-15	53	-10	-14	2	-44	-29
43	2	17	2	-5	29	-43	-43
30	-1	-31	-4	10	-48	4	31
1	20	-3	-3	-15	-13	14	31
-59	-10	37	8	2	-5	-124	-61
11	-21	7	-23	-19	-18	31	9
-62	13	-15	7	22	31	36	-81
94	25	-5	-5	15	60	14	26
0	-25	24	-9	-23	-84	-6	-24
-75	21	-49	13	33	35	112	127
106	17	29	3	6	-55	-98	55
-44	-1	13	11	0	92	3	-31
-8	-20	-16	-19	-9	-45	-104	-105
-12	45	36	10	-12	6	-47	11
27	-35	2	-22	-26	-61	-33	-14
-10	-6	-2	-2	5	-27	-45	43
-6	7	-38	4	15	46	54	-34
35	-6	-37	12	9	53	3	-53
-1	-21	-3	-5	-38	-55	-5	-18
-29	17	1	-6	6	11	18	-36
95	-19	24	-3	-4	-49	36	75
-80	-28	-43	-5	12	48	-3	-93
47	32	-4	23	35	36	54	113
-52	-18	-9	-19	-10	-12	-73	-65
-53	2	-50	-5	3	-27	-5	-44
-7	4	49	-4	-34	-8	-104	-50
25	-37	-38	6	8	6	73	107
62	18	-28	19	14	22	-28	5
-69	-9	9	-3	5	41	-6	-7
-22	4	35	2	6	-61	-3	90
-65	-9	37	-7	-25	88	-25	-84
10	2	18	-4	-4	-40	35	21
65	4	7	12	2	8	24	-2
-39	-4	-9	-16	-20	-31	-66	-71
-14	14	45	-3	1	-55	5	13
21	1	37	-3	-23	16	5	-22
-80	-4	-2	-2	3	14	-42	59
39	16	0	6	10	36	113	4
19	-8	-30	-4	5	16	40	77
58	16	-16	5	18	-34	36	94
31	0	68	0	-6	-82	-99	-128
40	1	8	23	11	116	112	127
13	22	18	0	17	-7	-128	-26
-112	-72	-24	-21	-19	-94	-65	-13
106	25	-13	11	20	30	10	127
-86	-49	-35	-16	-9	-19	-98	-99
-16	30	26	1	-26	-41	-14	-119
-1	-10	20	-4	5	69	21	12
-25	6	-20	-3	-28	-66	37	-51
34	-15	1	2	-5	60	11	75
-41	4	-22	-9	12	41	-69	-128
12	14	8	-5	-15	-121	0	-41
26	8	6	-6	-4	80	66	102
-60	6	-41	-9	2	-56	-30	-100
79	2	-64	11	14	-1	73	126
26	-6	21	13	12	8	-16	19
-23	6	-1	-2	21	55	3	-16
68	14	35	-12	1	-29	-48	52
-42	-16	-3	5	-15	1	-4	-66
21	3	3	-3	-2	9	26	-2
-10	13	-4	-2	-18	-45	8	-1
-4	-38	24	-4	4	27	-54	-128
-64	1	-9	7	-1	41	51	29
29	54	-21	-12	-3	-17	14	75
-35	0	70	-5	-9	-20	-104	-128
-18	5	-33	-5	-6	-43	81	127
10	-12	-12	7	-3	27	-51	-77
-38	-43	-11	-5	-7	-12	-11	-98
25	29	-70	9	28	39	-9	-89
-6	-6	41	-14	-13	-43	-13	27
7	-5	42	-4	-19	-41	7	5
15	21	-2	6	25	93	118	127
31	-34	-28	-8	12	-48	-58	-40
-28	5	27	15	-10	1	-4	-61
27	10	-28	-5	6	48	31	-16
-8	8	15	6	7	-40	-24	-64
17	-19	24	-4	-31	5	-32	6
-61	5	-32	0	1	-35	-28	-104
-9	-9	-6	-1	5	42	41	96
-39	20	12	-6	-19	-30	-114	-63
8	1	-51	9	33	-4	9	21
22	-2	19	-16	-30	-68	-76	-53
15	-13	31	-4	-7	62	43	-30
0	1	-16	1	13	88	28	35
-61	-6	-9	-6	-20	-83	-41	-72
22	16	-35	2	11	2	52	110
4	7	11	-1	-3	-92	-124	-13
-14	6	-30	4	20	64	123	105
-48	-10	-3	-1	2	59	-8	8
26	-16	-3	9	6	-24	27	67
-44	17	11	-12	-35	-32	-75	-71
19	-16	25	-9	-1	-95	-74	-39
-2	5	15	4	14	121	77	7
11	6	-44	2	24	31	27	20
2	-3	5	-2	-27	-73	-36	15
-6	-11	49	-2	-17	-63	-94	-113
1	-9	-13	-8	-12	34	97	6
30	12	30	4	15	26	-67	-14
-5	2	-35	5	18	14	71	-18
-11	-12	-24	-18	-26	-35	-38	-75
82	-13	-43	-1	-11	-19	-1	-60
-3	30	-15	16	20	-2	85	77
4	-69	-2	-9	11	46	-77	-41
12	14	10	-2	-15	-12	-44	11
0	40	39	1	6	-36	-41	21
-79	-33	39	-7	-9	65	-92	-128
88	20	-34	18	13	-9	127	127
9	11	5	18	46	-11	-15	1
-29	-15	37	-17	-29	14	-10	-20
-6	21	16	-4	-22	-46	-57	-62
-70	-21	30	-9	-16	8	-51	45
100	-14	2	7	6	8	29	-9
-48	5	-37	12	21	15	80	39
73	3	-13	-12	8	28	49	31
-35	13	24	-12	-8	-50	-112	-38
-36	-29	5	4	-37	-27	8	90
-12	48	41	5	8	-25	-39	-93
16	-24	6	-11	0	35	-10	107
52	23	-64	13	22	4	114	-8
49	17	-8	-16	7	31	-6	8
-14	-50	6	4	-6	-33	-62	-44
-44	-30	3	-6	-29	-96	26	-69
39	40	17	6	-13	56	1	75
-41	-4	-24	-3	29	55	13	-85
27	6	-29	20	19	18	16	63
11	-21	1	-9	-39	-48	-117	-53
-29	-5	26	-5	3	-18	30	41
-2	4	-14	-1	-26	23	7	15
-17	-24	12	-13	-12	-15	-91	-65
-22	3	-94	13	30	12	94	46
88	59	-21	12	27	13	49	-38
-65	-30	22	-20	-25	72	-85	23
13	16	62	5	4	-109	-103	127
18	-12	-28	-4	-3	40	-2	-73
10	7	-24	0	9	1	48	17
0	25	13	0	-1	-59	-31	-47
-48	-53	-1	-15	-20	30	-23	-10
75	33	21	8	10	12	32	75
-56	-52	19	-2	-12	-26	-43	-42
15	30	-29	5	22	0	37	19
-27	-1	-5	-7	-18	29	52	-32
1	11	26	8	24	58	4	29
-35	-10	3	-9	5	-28	-80	-115
2	-5	59	-2	-31	-75	-42	47
-26	23	-34	9	13	53	126	80
82	-24	-10	6	7	-24	-1	90
5	7	32	3	10	-29	-105	-83
0	8	-23	-6	13	26	91	76
22	20	-9	2	-23	-47	-53	-22
-46	10	-12	-2	12	30	-39	-128
-22	11	-5	4	29	86	34	58
16	-21	4	5	-19	-28	6	9
41	-3	2	-9	0	-16	-15	5
-43	-13	7	-10	-17	-96	-75	-49
-18	8	11	-7	-30	27	-45	-37
-17	-6	4	6	17	14	-10	-8
5	-2	-25	2	13	35	95	71
40	9	50	2	-17	11	-39	-11
19	-34	9	-5	15	-30	8	-8
-46	-10	-13	8	30	10	19	-6
-13	29	-29	-5	-18	13	25	44
0	16	38	5	6	-16	-83	-57
-27	-12	-55	3	-5	3	111	13
68	0	-49	2	4	83	-1	45
2	-15	41	-2	23	-65	-45	0
-82	3	-13	-21	-20	36	-51	-45
29	-19	4	-11	-15	-73	19	31
5	-24	30	4	-11	35	5	-65
7	66	-37	9	19	35	21	-50
25	12	3	9	-3	-22	38	45
-50	-16	51	-19	-15	-15	-77	-29
44	-17	-6	0	-12	-32	28	-29
-55	-12	-5	-4	1	-23	-11	10
10	-1	0	1	-9	17	35	22
1	1	-15	5	0	32	-20	-4
-10	8	7	-9	8	-27	-29	-30
36	-9	65	3	-8	3	-49	-65
46	-11	-14	1	-8	8	97	89
41	-2	0	7	7	3	-8	124
-23	-1	2	-9	-11	13	-47	-2
38	-6	33	5	17	-26	62	74
-30	-13	10	1	14	24	1	-59
-7	-3	15	-14	-23	33	48	62
65	15	7	18	6	-70	-22	40
-20	-47	-9	-5	-12	18	8	-14
-30	27	5	-12	12	28	-86	-29
-51	-21	-53	5	11	-2	-66	-128
-1	-3	-11	-3	6	9	78	48
14	8	-1	-2	-24	-44	-40	-4
-16	-24	14	-4	-14	-45	-52	-21
14	-6	58	-7	-18	44	-128	-116
-54	-26	-75	-13	-11	-27	64	-82
54	26	-58	12	24	78	56	68
-7	30	51	7	16	-76	-37	-56
-75	-17	20	-3	-12	-28	-113	31
48	6	-28	-1	5	68	56	20
0	35	-37	8	17	38	90	107
-19	-16	-17	-2	17	-15	-74	-102
-21	-13	3	-13	-16	-52	19	127
-35	16	19	4	-4	41	1	41
27	0	5	-3	-23	-94	-80	-70
-1	-25	-33	-15	-8	100	66	34
5	9	-20	3	2	-36	-8	-53
-42	15	30	-9	12	-42	-80	-36
10	-13	6	-4	-19	-1	-18	-14
-10	3	-30	11	1	-41	-37	-86
35	1	34	-14	-25	45	50	63
-14	-8	-32	-5	6	6	38	37
8	2	-12	-2	19	-13	2	48
11	2	9	13	5	43	12	69
-14	17	-61	-6	9	-59	113	-64
-43	5	18	9	-1	101	-33	20
-68	-30	-13	0	15	22	-49	56
125	30	-22	10	-5	-33	127	49
-17	34	10	8	21	-21	-99	-57
-39	4	19	-1	-39	-111	-63	-53
5	-6	18	-7	5	66	2	-89
-27	-21	-10	-9	-4	-7	-34	58
9	-9	-5	-3	0	37	17	-12
22	6	11	-6	-16	-18	-7	-40
-1	-27	-13	6	-6	9	-40	-8
-6	8	20	-7	-10	-93	-32	15
27	-8	30	6	14	96	-66	-65
-68	-11	0	-9	-14	-42	8	11
-2	-5	-46	-15	-6	-9	70	19
-14	12	-80	7	19	-9	-89	-70
51	6	35	2	5	-69	75	-15
94	19	37	22	35	111	74	63
-40	-12	65	-7	-9	-23	-14	-56
-11	22	0	-21	-16	-27	-20	-23
-29	-39	2	15	-5	-21	-31	19
-5	2	-16	-1	-2	-28	-37	-25
33	-6	-9	-2	-3	-28	-37	-44
-44	-2	19	0	7	77	16	39
-13	12	-14	-9	-44	-17	24	45
-5	1	9	-1	9	-28	-33	30
-1	-2	7	-6	-8	27	-8	-35
-27	-17	26	-1	-5	4	-57	-86
27	-16	-34	0	8	-5	114	125
-47	8	-13	-2	-15	-84	-121	-128
66	17	-27	-5	0	27	48	50
30	4	25	15	22	51	90	73
5	-5	-34	3	16	21	31	48
102	-3	-4	-2	0	13	35	33
-53	7	18	1	5	-69	-76	13
-18	-3	35	-5	-25	22	-73	-53
-37	-20	-3	-6	4	-24	-83	-89
2	16	2	17	36	42	61	5
-7	-19	2	-14	-48	35	8	4
6	4	-18	-3	5	-53	47	41
-10	11	13	-1	-15	5	-81	-35
-63	-30	64	-19	-27	-34	-117	-125
68	8	6	15	26	70	119	78
-99	18	-49	10	19	15	12	11
99	32	-33	-4	5	-30	-50	-92
-22	-13	3	-2	-19	-59	-75	11
-53	2	-4	0	0	19	-14	-109
54	17	-1	-6	7	30	105	127
-72	-8	49	1	-7	-26	-75	-45
77	21	-3	-3	10	14	127	52
-6	9	23	7	1	30	-88	-24
12	-26	-10	1	-22	-36	19	35
-16	19	-23	-5	23	29	16	-11
-18	-11	21	-6	-26	-49	-26	-34
-25	7	14	-5	-18	-15	-29	15
70	-27	15	0	25	33	6	-12
-16	-15	49	8	-12	-58	-43	11
-37	-42	11	-15	-32	9	-120	-46
84	32	-89	12	42	61	97	108
-22	14	-4	-2	-6	-43	-114	-97
-48	-14	-20	-6	-7	29	1	-62
94	18	-60	21	49	90	118	127
-45	25	40	-3	-14	-76	-128	-93
-10	-11	12	-13	-30	-82	-67	-77
92	0	-2	3	11	110	41	68
-49	-27	-4	-10	-9	-3	-20	-73
-23	-40	11	-9	2	-78	-57	-22
11	17	33	13	-8	62	112	115
-13	19	-8	13	30	49	14	49
-24	-8	-43	-15	-17	-62	-3	-6
15	-17	4	-9	1	11	3	-6
-35	-27	75	-4	-15	-23	-128	-40
-49	-27	-60	-12	-21	-33	33	-59
15	43	-84	17	41	72	100	92
2	-8	41	4	3	-62	-114	12
-8	6	17	-11	-17	-9	8	-9
-83	-38	10	5	-5	25	-94	-51
84	33	-21	14	38	34	54	82
-36	18	-25	-1	-16	-8	-71	-77
-24	-22	6	-6	-10	-16	-49	38
-6	11	28	4	10	33	36	-6
-32	-25	10	-3	-32	-9	29	7
6	10	5	-10	10	19	71	6
21	-13	-24	2	2	-8	7	34
-2	4	3	-9	-33	-74	-35	0
-28	-14	56	-5	-2	5	-76	-31
-16	1	-5	7	-3	6	-15	-54
0	-8	-52	-10	-1	-8	0	-110
80	-7	18	2	10	-49	92	127
-27	7	-70	4	12	81	56	-36
-49	27	72	10	2	-19	-57	97
55	-63	-54	-13	-2	0	-6	27
109	54	-38	5	25	44	118	109
-14	8	14	3	-7	-24	-103	-47
-12	-46	2	-8	4	-21	-50	-23
-49	13	-3	0	10	26	-24	-75
-11	-13	-4	5	-10	-70	-26	14
-7	-6	29	-18	-24	-2	-49	-14
-10	-33	-9	4	9	-1	58	-15
-3	12	-12	-3	-7	51	24	-22
-14	-1	-25	-9	15	-4	-25	-22
-6	4	6	-1	-7	-123	-74	11
-21	-9	48	2	-12	115	-41	-124
10	8	-23	3	12	-8	126	127
-59	23	-67	8	-3	-48	27	-122
-7	11	-61	-13	6	30	-90	-79
94	19	-116	3	16	-3	127	119
-59	9	53	12	17	13	-101	-102
10	13	102	-3	0	34	65	82
-14	-15	109	4	-9	-28	-75	-13
-107	-18	112	-7	-50	-85	-107	-45
68	-36	44	-6	15	104	63	-79
20	22	11	6	22	40	5	30
-15	-11	31	-4	-17	-61	13	11
50	26	36	3	0	23	22	56
-31	17	31	1	-19	-51	-24	0
-14	0	74	-6	-24	-10	-99	-73
12	-21	11	-1	33	50	97	46
-2	-8	-15	-9	3	-25	-47	-2
-30	-4	24	-9	-14	-97	-70	-46
-10	-27	-43	4	12	83	-57	-119
39	0	-21	-10	-31	30	83	38
56	48	0	16	24	-19	101	106
-23	18	15	0	1	-12	-42	-60
58	-31	-18	-4	7	-12	-71	-6
-2	-20	12	1	3	10	71	56
52	-23	-28	-4	14	84	74	35
-11	1	-2	10	-9	-56	3	41
-7	-19	35	-13	-33	-91	-58	-28
-38	7	31	5	16	78	-57	-106
8	-6	-2	-2	-21	7	-27	-31
-8	-9	9	-4	0	-43	37	57
4	13	4	-7	-5	28	-3	13
-3	4	24	4	19	3	9	1
-19	6	18	-3	-43	-32	-68	-95
-29	-16	44	-5	-7	43	-22	38
53	28	-21	20	22	7	114	119
-54	21	-38	-16	20	-79	-60	-54
41	-12	18	14	25	-19	-52	-41
4	-26	-14	2	9	123	-64	-68
6	15	-22	-4	-1	-35	105	52
28	-6	3	5	-4	18	-15	3
30	-1	0	-4	-4	-68	-44	-56
17	-20	10	-4	-11	-26	-56	-25
-43	1	6	-4	-18	14	-26	0
8	-23	-7	-7	-17	-33	-17	-31
-33	0	-18	-11	24	77	47	-94
24	28	-26	11	3	-11	77	76
-19	-2	25	-5	-21	-1	-124	-60
-14	-8	62	1	-21	-100	-2	10
-32	-6	-61	-3	7	77	84	25
83	28	-41	6	31	46	57	-8
-21	-9	32	-3	-11	-104	-87	-9
-6	-5	36	5	3	47	-13	49
-45	-26	-1	-6	-7	-83	-46	-50
-4	-1	-55	18	17	88	55	-86
2	34	-8	-24	-8	-9	-77	-22
-25	-21	-51	-5	-30	-60	-54	-112
45	13	-10	6	21	111	118	95
12	12	-11	-1	8	-63	-19	8
-7	-18	7	6	12	-27	-64	-33
-33	-14	5	-13	-26	84	-52	-33
3	13	9	4	-19	-48	25	24
-27	14	-16	-6	-6	-60	-42	8
-11	-12	11	-1	-12	12	41	-26
40	12	18	9	16	48	19	38
-11	-36	20	-13	-1	-29	-47	69
-8	-13	10	4	0	33	67	9
-33	33	-22	-13	6	28	14	-120
-39	-21	-28	7	14	3	51	105
-4	19	21	0	-15	-87	19	74
3	-2	55	-6	11	52	-73	-59
-6	-37	-9	6	19	3	125	123
4	30	-23	9	11	68	15	-56
51	5	11	-4	-2	-16	-39	-48
-75	9	35	-8	-44	-98	-86	-25
35	-6	-32	-8	-2	46	90	22
12	40	-6	11	14	25	2	23
-33	-27	-2	-13	3	-64	-24	-22
16	7	-10	7	-1	40	-14	27
12	13	27	8	-10	2	-43	-25
2	-8	-11	-15	-6	-31	-15	-16
-5	1	-12	2	-7	20	-1	-42
18	-4	1	-5	1	-12	-5	-13
-52	-2	18	4	13	27	-61	31
45	-16	-11	-10	-36	-69	-28	-101
-33	43	13	8	12	38	69	-50
29	16	-20	-2	12	17	49	127
-33	-18	9	2	-1	-55	-46	-71
85	34	-46	13	42	80	78	87
-25	-23	39	-6	17	-31	-128	27
-67	-68	-42	-28	-46	-49	-30	-72
36	15	-53	3	3	-11	79	106
-29	-4	39	0	-10	-57	-57	-59
-12	1	-22	10	-12	4	-30	-50
-21	-26	36	2	9	11	-49	-18
2	-30	15	-8	-13	14	-65	-63
9	-6	-14	11	12	4	16	8
-8	2	-10	-14	-26	50	39	21
15	13	11	-1	-9	-58	-44	-31
-30	15	34	3	-13	23	5	-13
17	2	8	0	-6	17	93	32
-53	3	-15	3	14	-53	15	48
25	17	-11	3	20	-8	113	81
35	50	-2	17	31	95	6	4
41	-13	57	-12	-27	-33	-128	53
-66	-14	-19	-14	-23	-63	-106	-108
1	5	-73	-3	19	-18	117	123
-17	-1	-49	12	29	64	15	71
-4	-12	5	-4	18	-44	-88	-104
22	1	42	1	-13	7	-42	-68
-32	6	4	-5	-22	22	-26	-72
-2	-13	5	-11	-23	-67	39	25
-10	4	8	8	10	18	-45	-2
16	-19	11	-3	-10	1	7	23
-10	1	13	-4	9	35	43	-24
39	-18	-8	-2	1	0	-38	-20
-82	-10	-4	-14	-24	-93	-20	6
54	-3	13	16	18	-1	68	127
-29	20	38	13	7	89	-31	-72
25	-34	-68	-22	-17	-7	-41	-65
22	-6	-40	12	7	-35	67	30
100	16	-9	10	47	13	108	76
2	14	21	19	-3	11	-88	-14
-88	-46	89	-21	-19	-12	-50	-86
-42	49	9	-3	1	-56	-1	-64
34	-27	-21	-13	-6	121	25	59
53	9	-30	2	-10	-67	-7	-19
0	-3	31	8	-4	-54	-84	-28
-16	-25	-11	-18	-17	31	-29	-27
-30	14	2	4	-9	-23	-18	-26
2	3	-7	5	20	20	46	-44
15	2	-44	3	1	24	77	49
-58	-17	19	-5	-17	-35	-50	27
70	20	-2	-5	6	8	1	-78
33	-10	12	-6	-2	-88	4	-18
-3	-4	-21	7	11	86	16	59
-11	5	15	3	25	45	38	-27
-90	-10	-5	2	-1	-16	36	93
2	19	4	-15	-22	-66	-107	-72
20	-6	11	-4	-23	-79	67	-118
50	-5	-29	16	33	98	108	127
21	27	28	-6	4	-8	-93	-62
-16	36	-4	-2	-10	22	29	43
-37	-41	6	-9	-5	-22	-71	-30
17	1	9	2	-4	72	16	19
-10	-25	-22	-8	-10	-28	-22	-128
19	6	-5	-1	-4	-38	50	127
34	43	-3	10	22	-37	-42	31
-27	-18	4	-29	-32	5	-43	-100
15	-4	8	8	-8	-29	-40	58
-85	-40	-9	-6	28	55	5	-98
-8	26	-24	7	-3	33	29	85
28	26	-50	7	6	-17	-6	-100
22	38	8	-4	-2	11	104	92
63	-3	0	12	32	106	70	104
-4	-25	64	-7	-29	-89	-65	-77
-9	-4	-63	12	15	-29	55	-23
8	4	-19	-6	-6	-3	-32	2
-18	-53	24	-14	-18	-73	-82	-34
28	21	-20	-3	15	127	38	19
19	20	35	7	-21	-66	-40	32
-46	-29	-4	-5	-7	6	-25	-92
33	12	-20	8	10	-7	22	79
-25	-1	-12	-1	-7	-22	-6	-21
17	-18	22	-7	-7	10	-21	15
-23	5	6	0	2	-50	-23	64
-25	-7	9	-9	-23	13	-124	-53
-27	0	-85	5	25	11	11	-59
24	9	-19	7	24	18	50	67
-51	-32	-4	1	-12	7	17	-97
11	12	18	1	-1	31	-45	111
89	19	0	7	0	-51	72	7
-3	6	-8	3	15	42	108	95
-45	1	-14	-10	5	-91	-70	-64
2	5	27	6	-11	112	35	-25
-15	51	-2	4	6	26	27	-55
5	-32	30	-23	-20	-77	-93	-37
25	-2	32	-3	-1	-12	-36	0
-11	-12	-6	4	-21	-33	6	-34
-26	-10	39	-11	0	-27	25	109
-26	0	6	4	1	58	-40	-77
7	20	-11	-12	-19	-30	-101	20
83	-33	11	-2	1	-24	77	68
-115	9	-46	11	15	71	70	20
65	-8	-7	11	13	-24	-88	27
13	-1	-37	-5	-5	41	66	3
-47	10	-1	-3	-5	-68	-80	-93
95	7	44	-8	-5	-54	77	91
3	-24	-3	2	2	78	57	62
-33	-21	-10	20	14	-4	-70	-22
-3	11	19	-4	-6	46	-11	7
-25	-30	-6	0	10	-19	-57	-10
-36	-22	-14	-16	-33	-31	-22	-45
30	9	8	0	0	27	18	8
-33	-12	1	-3	-11	-39	13	-46
-13	-2	-7	-3	-13	-23	-115	35
41	23	24	6	1	12	74	94
-46	-3	-27	11	18	25	127	22
17	15	-15	7	29	-24	-63	-38
56	4	36	-11	-37	-5	-128	-11
-107	-22	-19	-11	-12	-48	-6	-95
51	52	8	15	30	99	82	41
41	41	-5	13	37	34	38	10
3	-1	3	5	3	23	14	-4
-27	1	44	-8	-3	-102	-128	-128
-1	11	9	-9	-36	-1	17	-49
-1	-12	-25	5	19	9	126	123
40	0	-8	-9	-12	58	-51	-64
-21	1	2	0	-1	-31	-31	-8
3	-9	5	-5	-5	24	10	60
1	18	-17	-1	-3	-11	-17	-54
-16	-18	-5	8	1	-78	-13	-6
2	27	20	-16	-8	51	-50	-62
53	-17	41	5	-24	-61	-114	-51
-72	-16	-38	-14	-14	11	65	17
94	43	-37	22	49	94	127	-67
-70	14	14	6	18	-24	-66	-3
-84	-46	-20	-27	-46	-97	-51	-100
99	8	-28	17	25	72	74	78
-55	-62	9	-3	30	54	-126	-44
7	-1	11	3	2	-18	-35	-30
-10	0	25	-11	-25	-1	-57	-27
-5	22	-2	-2	-7	3	-8	17
-31	6	-7	-3	-11	-70	1	6
38	-6	-8	-6	3	20	44	42
-24	-19	3	3	-4	17	-28	-22
3	-10	0	-6	-16	-78	-35	-57
-24	0	29	-1	6	27	-41	28
1	0	-49	-10	-15	27	21	-42
48	8	19	3	13	-33	14	113
-99	-8	-42	-2	19	49	22	-98
89	20	-10	13	9	-9	60	-3
-21	-29	-2	-8	1	-82	28	67
-13	1	-14	1	9	127	18	-58
58	-18	-18	11	13	60	39	89
-52	-10	8	-15	-20	-117	-95	-8
5	19	14	7	-28	68	1	-62
8	-13	-18	-3	50	66	7	11
-11	10	12	1	-12	-50	-85	-20
-46	-28	-31	-14	-47	-9	18	-13
34	-8	-6	-3	-5	-74	-22	8
-11	-4	61	1	-8	-37	-101	-37
27	-30	-12	-13	-4	94	13	-101
-40	24	-48	15	43	4	127	125
13	13	-41	0	-14	-30	-36	-96
-8	10	-27	4	-2	-5	-67	-59
23	-22	17	-21	-16	-92	-112	-116
27	10	4	7	0	66	76	71
-6	-16	-3	6	22	42	104	127
1	26	23	0	1	-59	-31	-79
-23	10	74	-5	-27	31	-39	119
-50	-14	-1	-5	1	-8	-7	-69
51	27	-26	8	22	41	37	35
45	-10	-29	-1	-23	-52	36	75
-52	0	50	-9	-35	-56	-86	-13
16	4	34	-1	28	11	-47	-15
-9	-7	-8	0	10	82	19	-94
21	12	0	1	5	-6	26	83
-9	9	13	-7	-27	-93	-48	45
-17	-6	-21	2	-13	42	84	-7
-3	16	16	14	35	14	-75	48
-21	-28	-7	-11	-28	24	-28	-91
-41	-25	-9	-1	19	-19	-33	87
-68	6	-38	-10	-11	-62	45	91
94	29	9	12	18	86	45	119
-59	-30	-33	7	16	-42	-36	-57
-14	2	26	5	0	31	-32	-17
1	-12	36	-2	-25	-10	-73	-95
-44	-11	19	-12	-9	-66	-9	0
41	33	17	9	3	72	1	16
30	9	-23	5	24	48	65	-62
3	16	18	-7	-10	-68	-56	-6
-16	-80	7	-8	-36	-46	-39	-49
-8	-16	27	-6	-4	17	-43	-46
66	1	-27	-2	11	22	84	16
-53	19	-54	7	19	25	67	-9
-2	20	-22	-8	-26	-32	-4	-112
59	12	42	13	38	-48	-8	105
-64	-32	-8	-17	-21	53	16	20
107	-9	-14	17	35	67	67	87
-32	3	25	-12	-4	-112	-106	-56
19	-28	8	-1	-13	72	92	58
-71	11	-20	-2	12	35	-56	-128
93	38	7	-2	-22	-33	34	75
-27	3	8	21	17	28	9	81
10	-9	-21	-11	3	-37	-75	-71
-26	-27	14	-4	-11	-69	0	55
-30	4	34	0	-20	-16	-67	-83
-22	1	-2	-2	1	107	34	-40
-28	15	-22	6	9	-30	16	11
8	-14	8	-5	-7	-52	-10	16
-14	-2	12	-14	-12	-22	-112	-94
24	-16	-5	7	-12	50	15	18
10	14	-37	7	26	78	120	64
-47	-6	-56	3	6	-61	-70	-80
102	-2	-41	-3	-1	-37	30	86
-34	-13	25	-6	-11	-96	-126	14
-70	11	-21	-4	10	105	6	-50
54	18	-15	12	19	-45	30	-25
-31	-5	44	-16	-18	45	-58	-63
21	-5	-33	7	9	17	69	79
58	37	-8	7	1	-72	-49	-12
32	-6	18	-11	-27	12	-6	11
-61	-44	0	-5	-6	-62	-71	-74
12	11	30	-8	5	10	-14	-7
-37	-7	40	-1	-10	12	-39	33
32	24	-36	8	4	7	81	3
11	34	-14	-10	6	9	-46	-77
-17	-6	-32	8	2	18	47	-78
-24	-13	-41	-1	6	-17	123	49
41	37	-6	8	26	68	21	38
-34	-21	94	5	-30	-61	-74	-48
-35	28	-56	-17	4	12	77	108
-14	11	-36	0	-4	-88	-123	-112
-15	-17	59	-4	-24	-38	-80	-106
15	-19	17	3	35	123	49	52
-10	3	15	-14	-35	-26	-55	-89
-7	-16	13	-7	20	6	42	42
16	8	-6	5	-31	-1	-9	37
-12	-18	-3	0	5	-33	-57	-8
3	0	22	2	1	39	31	7
20	-1	-13	-3	2	-6	40	64
-16	-5	-2	-5	3	-27	-46	-50
-11	3	51	-1	-25	-43	-103	-30
-38	-53	26	-14	-13	-29	-80	49
17	38	-1	0	-2	-22	57	11
49	35	-29	18	60	117	108	127
7	21	-40	13	28	33	-21	127
9	-3	-17	2	-7	-105	-86	-49
-14	-19	47	-20	-44	88	-90	6
-50	26	8	-13	0	-44	-13	-17
-19	-14	-52	-10	-26	-6	14	-38
25	10	10	8	9	-20	-17	-36
-27	-12	-2	-12	-31	-46	-31	-53
2	0	12	3	12	-4	-1	-36
-6	-4	-10	-1	-7	37	89	11
15	17	8	6	6	81	29	5
3	-4	-10	11	15	-7	44	-11
0	-8	21	-2	-11	-45	-106	14
-18	-27	28	-13	-31	-67	-51	28
11	2	-6	6	9	-48	68	-60
86	-15	-46	12	20	100	75	5
-40	0	-32	4	12	13	-4	58
-25	-45	-21	-5	-3	-5	64	-9
66	40	-34	14	16	16	-53	-14
11	-4	26	-5	19	-5	71	83
-1	11	19	1	-8	-2	-89	-38
-13	-10	-25	3	-16	-72	-40	-32
-26	-9	32	-17	-2	51	-8	15
-34	-4	9	-7	-17	-26	-94	-124
-6	-43	-22	-11	-9	-9	32	13
21	32	-18	11	30	68	37	38
-23	-12	-15	-9	-30	-68	-58	-90
26	-7	25	-4	-18	-65	-39	30
-5	-9	10	-1	12	96	17	-118
78	13	-38	6	13	-6	79	-35
-17	8	2	13	6	-37	-15	-27
2	-32	-29	-3	-5	34	62	75
2	-4	13	-1	0	-24	4	-29
69	46	-33	10	18	28	100	84
-22	34	77	-19	-32	6	-52	-36
-60	-19	-26	-14	2	-69	-56	-56
14	8	-15	20	11	9	70	99
-36	4	18	1	13	52	-46	-98
1	-6	-27	-13	-8	30	-7	1
-20	10	35	-4	-24	-79	-117	-81
-19	-20	0	-4	-8	40	-13	-2
1	12	4	0	-1	-10	-3	-15
3	0	-33	3	-3	-8	19	36
-20	4	18	1	1	-62	-21	-30
12	-10	0	-3	-14	15	-3	69
-14	-9	-19	-8	4	17	-96	-107
-5	-10	12	12	8	-46	89	-16
28	1	12	9	31	120	125	61
2	67	-68	-13	-4	-13	47	29
-11	-17	-16	1	11	-8	-24	-28
77	-4	32	-4	-10	-17	55	127
-76	40	-42	11	12	-25	7	-99
15	-19	21	-3	-11	-10	-78	-98
-32	-25	43	-10	-21	24	-55	-14
-31	12	-38	1	9	-7	-19	7
15	-28	15	-8	-13	2	5	61
36	-11	5	-2	-5	0	3	-9
-61	-13	-19	-8	-11	-101	-40	12
18	-6	9	0	2	83	-4	10
3	9	16	5	13	30	6	-59
-20	-8	-10	1	6	-57	-13	27
0	-33	25	-3	-6	58	-28	-22
1	-21	-19	-7	-7	-58	-43	50
6	29	-38	-6	12	33	49	-16
65	7	-22	21	39	-3	4	-65
-1	10	-31	-12	-15	-27	44	-9
30	45	-33	9	28	72	-2	-20
-53	-36	60	4	-19	-37	-128	-97
15	-25	13	-28	-45	-54	2	-20
34	59	-12	8	20	33	62	78
-8	-16	8	0	26	78	7	-36
28	1	-18	-4	-32	-83	-32	40
-49	11	51	11	3	-47	-67	-53
-9	-55	33	-3	5	77	15	-11
-38	-20	-3	-7	-2	-18	19	62
37	26	-10	1	1	19	-47	-51
-45	-18	-4	-7	-14	-20	0	45
31	13	15	0	-11	-36	22	73
-35	5	-57	8	27	-13	123	-36
-26	-31	-24	9	5	77	-53	55
-24	41	37	-12	-12	-93	-78	-73
29	0	15	-13	-6	105	42	40
72	1	-25	8	7	-36	40	33
3	26	40	8	11	25	-43	110
-69	-63	-48	-10	-12	-41	-54	-75
64	21	17	5	-10	-18	-5	44
-13	5	17	-4	16	68	21	35
36	-18	-20	-3	30	50	83	79
55	11	29	11	-24	18	-12	30
-116	-24	-3	-9	-13	-114	-128	-128
-17	6	28	-9	-27	-44	-21	-54
23	20	-8	1	9	60	76	13
-6	-11	12	-1	2	32	4	-20
-53	-21	-39	4	16	-49	7	-22
51	8	2	5	-19	17	-108	22
-83	-2	-22	-8	-3	-126	-32	-48
90	18	-20	16	30	127	23	47
-44	1	-33	-10	2	-61	39	33
10	7	25	8	-3	-62	-84	-26
53	-12	38	-4	-18	22	-30	-88
43	-1	-10	5	11	-22	111	127
1	-7	3	4	-16	85	-61	-28
-59	-44	8	-5	4	-15	-44	-16
-27	23	-10	-5	-8	-79	-5	-69
34	32	2	-10	-20	66	-13	-93
37	32	-11	10	11	-42	19	-5
-14	-8	46	-5	-26	72	-31	3
11	-33	-41	3	19	43	98	117
-29	-8	9	6	13	-32	-7	24
3	-3	23	-5	-19	-40	-75	-114
-35	-2	-7	3	1	-35	65	45
32	36	-10	-13	-7	59	-11	-105
-2	-4	-15	9	22	10	60	21
-5	-13	12	-8	0	24	-72	97
24	-1	-6	5	-3	-5	48	38
-12	-8	23	-1	-15	-45	-44	33
-24	-1	-32	-14	8	5	67	0
48	27	4	12	4	-45	-44	-76
11	-2	66	-9	8	38	-80	-47
-75	9	-62	10	-1	41	16	23
26	-4	-15	-3	19	68	33	85
-69	17	-25	-2	-8	-42	-7	-16
56	-42	-18	-10	-30	-53	-46	-67
-9	-5	36	0	5	-17	-74	-70
-18	-31	5	-19	-20	-49	-62	-10
41	11	-29	6	3	25	53	61
-24	27	24	-1	5	-6	23	14
9	-1	21	7	4	26	-49	-77
5	-8	11	5	8	7	-49	-3
-24	-17	-2	-6	2	53	106	96
47	44	-27	0	-14	-112	-24	-34
-11	-24	-13	8	24	91	68	25
-14	-22	-15	0	-3	-53	-81	22
4	-27	32	-4	-13	-34	-61	-6
48	28	-17	-1	4	80	124	105
-2	11	-11	9	23	-58	-30	-5
-28	-2	9	-12	-28	26	-79	-110
44	-7	39	-5	-23	8	-67	-85
-128	-21	-32	2	14	-41	29	23
61	10	11	2	-12	60	52	86
15	20	-9	-6	32	-26	2	-24
14	-3	11	8	-10	-7	0	-21
28	-5	-7	-11	-8	8	-6	-65
-35	-18	33	-14	-26	-40	-38	2
-23	14	22	12	-11	-50	6	83
-9	-6	-48	4	25	86	48	-47
-7	8	-60	-3	29	35	-31	-84
72	9	-3	4	-9	-101	6	82
-29	-13	12	-11	-21	34	-86	-17
44	0	5	12	9	-65	99	122
-4	-19	21	3	-1	98	-3	1
-55	0	-13	-13	11	-19	-58	-41
14	-5	0	10	-14	-24	-3	-96
-25	26	3	-5	-9	-21	-27	-29
12	-37	15	-9	5	-87	-77	12
-13	19	32	3	5	100	68	1
8	-6	-21	-1	20	5	47	27
-19	5	-16	3	-22	-19	-31	-92
-30	-19	29	0	-34	-87	-109	-128
96	9	-25	1	8	33	62	81
-14	22	27	12	23	69	-18	57
7	-35	-10	3	28	-20	-62	8
-89	-35	-70	3	-5	-11	-10	-28
3	7	-44	-15	-20	-82	-6	13
-12	-9	52	1	-19	-6	6	-58
25	2	29	-4	14	82	-28	-42
-22	12	-2	10	12	-38	1	-10
-20	-30	7	-1	8	49	-17	-14
3	37	-28	-19	-25	-29	14	-6
-26	10	15	-10	-7	-71	-39	-10
22	-16	22	3	0	89	-2	-39
-48	-28	-75	15	-1	-78	-40	-34
77	7	-12	-6	4	2	65	-45
15	8	-5	5	15	107	34	-4
111	20	-10	-7	-7	-71	-36	-37
-81	3	48	-2	-21	-16	-49	26
-59	-28	39	1	-24	-37	-128	-66
12	-4	-56	-8	7	7	127	123
78	38	-26	22	45	83	33	-26
28	22	21	-6	-6	-21	-35	-83
-21	-38	-23	-3	10	-26	-47	62
9	3	52	-8	-24	2	-24	-49
-17	15	3	3	-10	-46	1	112
33	-5	-21	16	26	82	100	107
-65	-14	-26	-17	-14	-26	2	-35
-11	-16	5	1	50	-3	-79	-36
-43	-19	5	-20	-77	-62	-56	-22
20	-5	33	0	-10	21	6	-58
33	12	3	2	10	57	50	29
-47	-10	-5	3	0	-64	-27	-3
-26	23	-19	-3	12	15	19	-19
4	-9	25	-9	-6	-88	-38	28
43	-14	-12	0	2	107	25	-91
-90	12	-19	-3	-2	-48	-27	-23
-13	11	-11	0	19	44	108	111
38	17	-21	6	5	11	36	-50
14	-3	12	-8	-6	-77	-68	72
-4	-19	41	3	-28	-19	-108	-102
15	-22	-8	1	-6	69	71	77
22	0	-53	10	41	41	13	24
-14	43	-6	-8	-9	-99	-47	-60
0	-6	19	2	-10	97	-62	-46
-68	-22	56	-10	-26	-32	-103	-89
53	-20	32	-6	9	-80	-17	-44
34	25	-21	24	11	88	79	71
-8	6	-15	-15	2	13	49	-47
13	-19	-11	0	8	-4	-9	-7
-26	8	-2	-4	-22	-12	-71	-88
17	-8	15	-11	-25	-128	-25	21
-3	-3	-37	10	12	15	91	91
52	5	15	3	45	105	-58	-61
-87	-2	-84	-11	-6	8	61	-53
-5	6	-18	15	12	-12	-59	37
31	-8	47	-6	-28	-53	26	-38
57	23	-50	5	23	20	106	114
-49	57	56	2	-6	-32	-102	-39
-35	-24	7	-13	2	30	18	-12
25	1	-25	-7	10	-10	-12	31
-22	-7	11	-3	-17	31	-60	-78
11	-28	25	-9	-14	-62	-46	-13
5	11	8	2	-8	52	3	-30
11	17	1	5	20	60	32	-10
-9	-6	10	8	-2	-66	-8	13
-4	-30	0	-18	-25	32	-34	-3
-17	15	46	-4	6	-43	-11	57
-19	-3	-25	3	-6	-32	42	-65
-7	28	9	8	6	81	55	-34
126	-35	-1	0	9	-56	54	-42
-110	10	-19	10	14	94	13	1
82	16	-44	-8	-8	-21	72	115
-41	0	16	-1	-12	-125	-120	-101
-2	20	29	-7	-7	32	67	-28
14	-28	-6	3	4	53	34	14
-20	45	0	11	11	12	12	26
-5	-6	0	1	14	36	-9	3
-30	13	24	-16	-45	-43	-128	-4
-11	-25	-9	-3	-6	-73	-16	-53
6	8	-3	-7	-21	-1	-14	69
-6	-15	7	-3	13	-16	-25	-70
-50	0	-5	7	-8	29	21	-4
104	2	12	-1	13	34	25	37
-10	-29	24	-5	-3	-21	-60	-119
-46	-4	-47	2	1	34	103	101
-18	6	-50	-1	21	46	9	-65
-4	8	-1	8	13	-25	38	-72
-9	-12	26	-11	-16	-62	-128	-100
37	-10	21	-6	-25	2	85	1
27	49	-20	20	22	70	94	127
-5	0	-11	10	16	-31	-31	-33
-54	-20	11	-14	-22	-68	-109	-26
-20	-24	14	-10	12	59	-56	-70
-7	-9	6	0	-17	7	59	50
-13	0	-3	-1	-7	13	35	-8
21	13	7	16	17	-4	11	71
-4	10	-7	-14	-32	-85	-99	-57
18	-31	34	3	-8	14	-23	-20
-4	-18	63	0	-15	-62	-83	59
-51	-51	-103	-13	0	50	11	-60
93	97	-65	29	77	86	98	127
-31	-28	-1	3	13	-19	-128	-128
5	-10	6	-6	-17	-39	-66	-97
-31	12	39	2	-13	37	81	88
55	-12	62	-14	-37	-81	-54	-10
-5	15	-16	10	25	-49	66	118
-5	0	-38	-12	-9	78	-44	-108
26	-13	19	7	6	1	7	-62
-2	23	-30	3	-10	-5	100	81
6	54	18	-7	9	2	-91	-15
-24	-21	22	-9	-20	-89	-53	-74
15	15	15	2	10	100	94	106
12	-33	-44	2	14	-15	35	-43
-72	-33	-23	-5	-16	-4	-88	-64
-30	15	11	-7	-3	1	53	37
54	20	9	-5	6	-45	45	58
53	-19	4	5	7	62	-39	-77
-14	-32	-1	-4	-8	4	-21	25
14	39	8	15	0	8	-68	-36
-23	9	10	-15	-15	-96	-77	-47
-56	-30	18	-10	-24	33	-33	-9
23	-8	-2	1	43	19	84	77
14	14	-9	1	-9	62	69	25
15	-4	9	14	0	-20	-48	73
-59	-14	31	-11	-21	-77	-90	-105
66	11	10	0	4	73	86	95
33	-19	-40	11	8	-46	80	-7
3	-2	-41	-6	15	41	-18	-72
3	-3	26	-2	6	5	51	88
-70	-29	64	-8	-38	-10	-128	-128
25	10	-38	-11	9	8	127	127
60	42	-28	12	4	33	-21	-23
-25	-17	4	6	-1	-62	-39	43
96	17	34	-9	-18	-54	22	10
-42	-8	4	-4	15	63	-26	-76
-24	-7	18	11	29	46	-12	-19
-52	11	-10	-18	-25	-27	-36	-5
15	6	-12	2	-21	-31	-27	-34
13	-2	21	-4	-3	-48	-70	6
-1	-17	4	-2	-6	47	45	32
0	4	-20	2	11	-7	18	-13
-7	11	19	2	0	-50	-79	35
-38	-26	15	4	11	76	74	-82
47	31	-3	0	-5	-52	9	-48
-12	-29	52	2	-14	-42	-106	-68
-8	-3	-59	-10	3	30	110	87
57	9	-44	2	3	-15	8	83
-57	-4	32	3	-4	-41	-94	-16
96	30	3	2	16	71	97	90
-84	-20	4	-14	-14	-51	-110	-80
21	-11	23	-3	-6	27	95	94
12	-6	-23	12	4	6	13	0
36	-44	-2	-27	-23	-70	-115	-59
-13	25	18	11	8	54	1	40
-10	-3	-40	9	32	38	47	-77
-15	-4	0	-6	-28	-12	17	-3
-30	4	4	3	20	-4	-38	-19
23	-11	-3	2	-17	5	21	-8
-24	25	30	2	-32	-104	-110	4
-2	-32	22	-16	20	84	-23	-52
-3	4	-17	5	-6	27	-48	-16
-63	-34	-92	6	25	-34	127	56
52	44	-24	3	0	-32	-107	-80
-25	-25	63	-15	-16	21	-63	-94
-14	17	-16	1	4	-16	109	127
56	-8	-12	-2	9	53	-19	18
-76	-31	-15	6	1	-46	-79	-80
53	21	20	-13	-5	36	79	123
-29	-35	11	-9	-19	4	-28	-83
21	-3	5	12	12	-28	28	5
-10	18	8	-5	-3	39	-2	-8
5	-42	-13	1	10	-82	-56	-10
-14	8	4	2	-21	33	-23	-35
-36	-16	14	-5	-15	-57	14	-38
27	-9	11	0	6	91	29	37
-41	10	3	4	0	-38	-36	52
85	-10	-19	-1	-7	-26	40	36
-87	9	-40	2	-5	-45	-60	-114
-1	19	9	4	22	91	4	-101
-30	-25	-63	-9	-11	-68	-8	114
28	51	-51	6	23	3	72	15
36	-31	19	-10	-3	35	-8	25
-68	-2	53	-5	-13	-37	-53	-61
-50	-28	-74	-5	-5	13	67	35
28	27	-21	14	16	5	-8	59
55	40	46	7	-19	-17	-21	-63
8	-22	25	-2	11	-42	-45	-20
7	-7	43	0	-6	60	-76	-89
-61	-38	-21	-13	19	42	16	-24
23	18	1	3	-37	-45	-8	3
16	-21	11	-6	-2	-29	-11	63
17	29	3	10	8	23	57	-22
-35	3	-7	2	2	-73	-15	-16
-27	0	39	-1	12	127	-79	-60
77	11	-54	-3	-11	-52	84	127
-1	-1	-24	14	12	-25	69	54
-73	7	29	-15	-5	-44	-76	-63
20	-21	19	-18	-18	76	-127	-80
25	-4	-40	4	8	29	73	-4
79	51	-25	46	44	34	77	35
-24	1	61	-15	0	-31	-91	-71
-12	-33	16	-14	-27	-128	-115	-67
-33	18	20	-18	-19	88	-31	-101
21	2	-2	-1	-5	1	43	10
11	1	-4	20	0	-49	26	85
-7	-12	-13	3	41	97	76	54
3	6	-4	-3	-29	-49	-9	34
-28	0	18	-23	-25	-44	-67	-39
-11	-12	7	3	-18	-2	-43	-61
44	1	-3	15	42	38	54	30
-56	0	-20	-3	4	-7	-5	-11
18	14	22	-9	-21	-32	-118	-120
24	9	41	1	-4	-8	85	103
-40	-13	-52	-6	-1	19	-33	-28
83	-21	-45	13	29	-12	90	51
3	6	-6	-9	-3	-1	-28	-1
-25	4	17	2	-7	37	6	-36
5	6	8	8	12	14	19	4
-24	-25	27	-9	-39	-92	-117	11
-20	-5	18	-3	6	15	-63	-50
22	2	-10	-3	10	29	12	-31
36	7	3	-3	-14	20	16	20
-89	12	19	-11	8	-10	-2	36
-8	-1	-18	6	-21	-54	-9	-36
-13	-15	-15	3	6	53	-69	-70
-14	-2	-10	-6	-18	-39	55	-50
81	3	-9	7	23	20	102	37
-73	12	-6	-2	3	-46	22	-27
28	-4	-6	6	6	81	20	89
4	6	4	-11	10	-55	-64	-59
2	-60	-52	-18	-22	20	-77	-74
-38	26	14	24	36	-8	54	111
-20	-9	11	-1	-15	82	-29	-20
6	-7	-6	-9	8	-62	-9	-34
-62	29	17	15	-2	52	45	95
76	-13	3	-26	-15	-29	-40	-26
-32	19	-2	0	3	-28	-43	-48
-11	-21	22	-1	2	-14	-54	10
11	9	24	0	-14	12	17	-11
-6	-13	-18	-11	-13	24	15	-17
3	3	27	8	2	-96	-62	-4
8	6	-4	-6	-24	94	32	84
-11	-17	-56	11	28	-79	22	72
80	24	35	9	8	110	-24	73
-87	-22	-5	-17	-4	-19	6	61
-12	2	-15	7	4	-105	-5	56
39	20	-25	-1	-11	54	-86	-112
-7	-2	-15	5	13	-6	73	127
84	24	10	-8	8	-40	-34	-17
-3	8	9	1	-6	73	43	-84
0	-22	32	6	4	-22	10	86
-70	-2	-20	-10	-25	-10	-47	-119
23	-51	-9	-3	-5	-24	12	-43
-8	-6	-4	-7	21	18	-2	17
2	-5	33	-15	-18	-36	-60	-28
-28	-20	10	8	20	40	13	-30
-7	-8	-21	5	-22	28	34	17
50	23	9	-3	-3	-54	-21	59
-26	-2	8	4	0	-14	-97	-127
28	-15	9	-5	-24	17	67	86
-27	14	-14	-1	11	-14	47	46
-29	35	-11	16	16	18	73	127
9	-17	20	4	13	31	1	-65
76	12	10	2	-2	-37	-57	-128
-47	17	-17	1	9	73	71	94
48	5	-55	6	14	-33	38	11
-21	-11	9	-5	-26	-18	0	38
-42	-29	16	-1	25	12	-56	-111
51	0	12	-9	-16	35	-4	-41
-30	-4	3	-17	-20	-101	-82	-75
-15	8	14	5	-2	38	-1	55
19	-34	8	-10	-13	36	-17	61
1	9	-45	10	4	-81	-45	-128
-31	0	12	-7	0	91	67	68
59	5	-1	0	18	6	30	65
-17	6	8	1	-30	-28	-70	76
-14	-26	-27	-6	-10	-57	-17	-93
-3	-19	6	12	6	31	7	-75
97	37	-16	-7	-2	-5	68	73
33	27	-30	8	10	-19	-1	-79
60	21	40	8	7	26	-16	-13
-55	-21	3	-24	-33	-33	-128	42
-17	2	-12	14	14	47	120	87
-31	10	-31	3	29	-52	-13	-79
29	-3	41	4	-6	84	48	68
5	-5	15	0	-3	-9	-28	-74
-47	4	-67	-8	8	-84	-84	-68
31	35	-41	-13	-44	-3	7	64
-13	8	62	8	15	36	51	31
37	14	66	9	12	42	15	-65
-99	2	104	-11	-17	-62	-113	-54
1	-15	96	-5	-17	-42	-60	67
-5	-10	-1	-16	3	76	59	-25
98	36	-2	28	12	-1	115	109
10	-12	74	-8	5	-23	-128	-92
-60	-5	-6	-19	-7	-17	20	22
0	7	20	0	-7	-31	-31	55
-24	-2	3	8	5	36	26	-15
29	33	-16	9	11	7	40	-68
-34	-47	41	-11	-27	-41	-15	-87
39	-12	20	4	27	78	77	100
-7	14	-49	-8	7	-47	-36	13
4	-4	12	0	-10	-6	-35	-4
0	-16	23	-4	-8	10	-53	-96
-27	-8	-22	-5	-16	-56	-26	-111
6	-2	23	-2	-5	-9	66	92
13	18	5	5	-9	44	19	114
-10	-35	-21	-4	28	51	27	14
-34	28	38	-4	-17	-66	-70	68
3	17	-26	1	2	2	48	-71
-25	-13	-37	0	18	63	26	-5
55	17	13	11	18	-24	13	125
6	-8	-64	-8	-19	-59	-46	-95
-68	-45	15	-10	0	-36	-66	-84
-73	-25	61	-29	-58	-33	-93	-81
88	44	-67	32	57	127	127	120
0	-16	-40	14	46	30	-68	-17
6	-17	21	-15	-22	-64	-101	-50
-58	-27	-1	-5	5	-26	-66	-74
-41	2	74	-4	-45	-28	-26	-78
8	-1	1	-9	0	26	54	14
15	7	1	-4	-3	-61	-21	43
29	2	23	3	-21	51	21	27
-17	-38	-9	-5	14	29	32	-13
2	4	-22	7	-19	-80	-38	23
-18	-14	45	9	-4	67	-43	-43
42	-13	-50	-12	27	11	107	54
-29	34	-29	-1	5	-23	-17	33
26	30	2	6	0	14	65	29
-58	-12	59	-1	-22	-22	-127	-12
61	-27	-41	2	1	-47	89	-23
15	48	-26	33	47	84	96	74
-11	31	27	-28	-10	4	-96	88
-7	3	-29	-1	-15	-8	-61	-33
-10	-2	34	2	-1	10	-4	-25
-2	-46	9	-13	-21	-37	10	-22
4	-11	-12	1	-5	1	-5	-27
6	20	-1	4	18	10	24	36
-1	-6	-1	-12	-8	-45	-20	-38
25	-3	-2	-1	-20	-38	-99	-33
-23	-18	-9	-4	-9	17	-7	-119
14	-6	-10	2	2	79	84	53
-17	9	7	13	29	-70	-1	41
-18	2	25	-17	-11	13	-38	91
9	-16	7	23	34	59	38	20
27	16	-53	-2	2	-9	127	16
-3	34	-2	16	23	3	-8	17
35	-29	19	-18	-46	-63	-75	-94
-65	16	17	4	4	-30	-73	-51
-1	-3	10	3	8	94	81	-37
122	13	-18	15	14	15	88	127
-71	2	20	-6	-1	-26	-2	-81
1	-2	18	-1	3	37	20	-42
-15	2	-5	-10	-1	-60	-122	-18
-49	-13	-11	-14	-36	-27	-31	-46
-28	14	-32	5	17	68	58	1
2	-8	-7	6	-2	-60	-4	-60
33	11	-7	3	-5	21	-2	79
-27	-13	6	0	-2	9	-128	27
2	-4	-29	-10	-10	-57	-29	-90
-26	-28	-64	-16	2	8	62	127
4	55	-11	6	13	4	-46	-19
-36	-21	20	-4	-4	13	28	-34
33	12	20	6	7	43	56	-7
-41	8	-6	-2	-8	-74	-43	54
13	-29	38	3	-7	-21	-51	-19
-32	0	-42	-17	-21	50	-54	-128
16	11	-21	29	39	40	50	61
25	-22	16	4	-9	8	-55	-38
-18	-31	-3	-17	-15	-35	35	5
-16	22	23	-20	-22	-36	-41	-42
42	17	-2	3	8	45	74	91
25	-14	-19	2	-13	-63	-50	-60
11	-11	38	-1	-12	24	-94	-80
-61	-24	11	9	9	-5	48	-35
40	-8	-28	-8	5	1	56	-79
45	43	19	-1	4	-6	17	-3
-36	-19	23	7	-14	-23	-31	9
14	5	13	1	-29	53	43	-2
-23	-10	-6	5	46	-2	-128	-45
-21	-14	-6	-7	-37	-54	49	42
15	1	-36	6	29	65	106	51
39	14	22	4	4	-109	-72	99
-97	-47	-41	-17	-51	68	-9	-55
56	39	-21	11	34	54	-2	15
7	21	-18	2	4	-74	-2	127
43	1	-18	13	25	57	-2	4
-17	14	39	-13	-26	-51	-123	-107
-16	-42	26	-18	-5	-21	-53	27
31	-5	-35	7	-5	14	127	-19
4	12	-4	8	31	56	39	2
8	1	8	-8	-14	-60	-69	9
-10	22	46	-4	-29	52	-14	-35
21	-16	18	-6	17	-46	-22	50
44	16	-88	11	16	28	40	66
3	-10	21	-2	-12	-74	89	-20
6	54	-6	0	13	52	0	-40
-44	-30	59	-19	-24	4	-128	-122
-48	-18	32	7	2	0	95	82
47	14	-13	11	18	36	-26	127
20	2	28	2	14	-43	-55	47
-8	-10	-21	-1	-16	-24	-59	-128
-4	12	40	-12	-10	25	-66	1
30	-16	-16	14	17	-18	84	-7
-6	-15	-9	-18	-13	27	13	-10
-26	7	9	3	8	-12	-74	-26
2	11	27	-8	-23	-92	-3	-24
-28	-24	18	8	5	81	39	54
-6	-31	-24	0	23	-32	23	14
52	-4	-18	-1	-29	54	56	28
-65	40	-16	-1	6	-47	-95	-75
67	24	79	-17	-6	-37	-118	-108
17	-10	-12	13	-3	36	107	65
-16	-10	-15	-16	-17	-48	-60	-25
-8	-25	4	17	40	84	111	-49
-2	20	-32	13	28	70	81	121
-1	-12	-16	-2	1	-73	-89	-95
-46	11	15	-9	-27	-53	-60	-73
65	-3	7	-15	7	64	50	91
-79	13	-18	-4	-36	-128	-62	37
-18	-13	26	9	-8	72	-32	5
33	55	19	0	42	89	70	6
8	-38	-12	4	-7	-6	-27	60
-4	-5	-23	-21	-9	-18	20	-47
-15	-9	9	-4	-12	-47	-52	20
-36	12	14	2	-5	-46	-49	-19
23	-15	-12	-13	-16	26	20	-26
18	9	-19	8	19	36	52	62
-15	-9	7	8	3	-68	-65	0
-25	-33	-20	-8	-8	62	-30	-52
-8	28	-34	-8	-9	3	49	37
-25	-27	-10	5	-6	-84	-106	-8
69	-4	7	-6	8	95	96	-93
-5	0	-10	16	36	64	15	-36
25	1	-7	6	-15	-118	-10	41
-34	6	12	-3	-11	95	-46	64
-53	-13	-4	-9	1	-42	-31	-88
66	5	-19	-2	-8	-1	119	127
5	-17	7	10	16	27	-61	-30
-14	-19	27	-1	-10	-52	-15	-85
1	-10	25	-20	-27	5	-39	-46
32	1	10	1	9	20	44	54
-7	15	-13	6	0	-41	1	-96
-27	-6	31	-1	16	35	-52	-42
6	23	-32	4	-3	17	-2	-64
49	-12	-19	-3	5	-99	92	109
-25	-32	-3	0	0	42	-40	-46
42	1	31	3	-7	63	-32	-58
-17	-7	3	-14	5	-98	-62	91
-55	11	-1	8	-2	109	106	127
100	12	1	1	13	-19	47	-29
-2	-5	-9	3	-3	-23	-50	-19
-12	3	-13	0	-21	-39	-28	44
-5	-13	25	3	12	3	-57	11
-27	26	4	0	-17	-22	-10	14
-22	-30	-36	-24	0	6	18	-12
-31	43	30	12	0	14	-4	90
-34	-38	1	0	-11	-28	15	24
-14	16	39	8	5	5	-101	-57
-9	0	-22	-4	-5	9	26	-10
14	-7	-58	2	21	61	40	1
5	-5	-19	-9	-8	-34	-58	-128
-5	3	13	-1	-10	-20	-17	125
-53	2	7	-3	-8	-96	-19	-78
41	-10	-1	-5	6	104	109	86
-31	3	-12	10	21	-12	-52	-72
-1	-19	19	-6	-22	-59	-99	-42
-3	3	1	-8	-2	-12	-55	-68
-59	9	-19	17	7	105	111	67
39	11	-29	3	29	-50	-99	12
-45	-18	21	-2	-18	6	-63	94
36	-16	22	-6	-11	-10	8	-57
71	28	-1	6	-8	-37	-9	43
68	-23	-29	-21	1	16	54	68
-65	3	37	-1	-10	-43	-96	-64
7	-21	-18	3	2	16	35	45
-27	16	-31	0	9	5	5	-30
-46	-10	-2	18	7	15	-15	-43
13	-13	-36	-15	-10	-12	-56	-55
29	46	29	1	-4	7	-24	1
-10	-23	-7	-6	-12	12	9	-82
6	0	10	-4	5	-66	-52	-13
-5	15	-7	-18	-12	43	76	-35
-33	-4	52	10	-6	79	-54	92
-14	-7	-60	12	36	-71	17	1
52	35	-49	-1	20	72	62	16
1	-8	18	4	1	-41	-78	-105
-10	-11	12	-9	10	-69	-2	127
-25	-13	63	-10	-40	25	-85	-128
29	-7	18	-15	-29	-44	-1	90
21	-6	-73	3	13	57	127	78
-26	30	-16	3	20	-17	25	-49
-7	5	19	3	11	48	-23	-38
-10	-4	14	8	-3	-41	-79	-92
3	-18	18	-9	-20	-9	18	18
22	11	-8	-2	-4	23	17	21
14	11	42	0	2	-37	-64	0
-40	4	7	2	-16	-46	-30	-57
32	44	19	2	10	105	26	88
31	-28	-24	5	10	-57	91	14
9	-7	-17	-5	0	24	-6	22
38	5	15	-3	-22	-34	-40	-90
-93	-12	-8	6	11	-7	47	-5
37	30	-13	0	3	54	79	-27
96	-4	-16	1	25	38	110	127
-36	-14	45	3	-11	-72	-87	-83
-51	-20	-18	-4	0	58	41	56
69	-20	-10	10	4	39	-15	15
-22	4	-20	-7	-31	-122	-102	-94
-43	-18	-12	-4	-17	-15	-13	5
26	-9	24	-10	-8	46	28	-55
-26	-1	-11	4	20	41	47	70
-6	-39	11	-2	16	-19	-15	-22
22	6	4	4	-26	-28	3	38
-77	17	-13	-5	-13	-45	-30	-119
51	-8	-10	-5	-1	26	61	93
1	29	18	10	16	-27	-36	-33
-42	-3	18	-2	12	41	7	12
39	-4	9	3	-3	-38	-46	97
19	6	17	-1	-13	-102	-109	-128
-39	-9	24	0	-23	91	107	113
-22	18	-10	9	43	13	105	2
42	-5	-25	15	25	44	46	106
-45	48	-14	-4	-2	-69	-101	-70
-8	-33	52	-17	-37	-71	-113	-96
-48	16	-41	-9	-9	64	127	73
34	11	-15	-1	14	-79	-55	-39
-37	-23	-7	1	-9	85	28	-22
-3	-6	5	-7	-5	-32	-117	62
-43	-17	17	-2	-16	13	34	-8
107	-15	9	12	22	25	13	-60
-3	7	-15	-6	17	-6	11	60
-31	-11	-12	-4	-22	-21	-16	-52
46	-1	5	-1	-8	7	-50	-10
-75	-25	19	-2	-9	-71	-110	4
-37	-13	-11	-14	-10	-61	-45	-68
27	21	-1	12	1	49	127	108
45	-13	-59	0	46	83	30	-42
8	35	-24	5	0	-19	30	49
-8	-20	32	8	-7	29	-68	-50
-19	15	-31	7	24	-106	68	47
1	21	19	-14	-39	-3	-99	-45
68	-14	17	-12	14	77	45	61
-1	16	-16	-2	-29	20	17	45
-11	-16	-6	-2	4	-92	-76	-50
-1	14	12	10	14	53	0	-31
0	-11	-25	-3	13	40	23	-128
-25	-7	3	2	-10	-91	-19	28
15	-3	40	-17	-18	33	-56	-63
24	23	0	6	24	-19	82	127
-19	-8	-48	-6	-22	37	-28	-53
22	-40	-21	-1	-20	-17	-19	-9
-29	-5	34	10	9	-42	-40	-28
-52	-1	0	-7	7	69	64	-54
91	19	43	8	16	-23	-2	11
-68	18	-56	-14	-7	-27	-35	5
44	15	-26	17	18	25	34	48
-56	-44	30	-7	-10	-28	-82	-72
-40	-24	14	-4	-27	5	-18	-45
101	21	-28	-8	16	33	76	28
-61	16	-18	-4	11	-9	-45	28
17	12	-8	2	-24	-22	-28	50
-37	-2	19	4	13	61	-16	-62
-1	-23	24	2	3	-28	-47	-23
-8	-1	-15	-2	16	-15	24	-42
22	2	17	-11	-45	11	12	15
-30	-3	3	-9	9	-54	-69	-27
-27	-9	5	4	-13	-26	45	49
-4	11	-9	3	4	79	32	84
-5	-3	-6	-5	-10	-41	-76	-98
24	16	-16	7	15	27	106	127
-35	-2	-31	12	23	-34	-27	-100
41	-32	-9	-13	-22	30	-18	-81
73	28	5	9	28	18	72	127
-18	15	2	-10	-15	-3	0	-74
12	-10	31	10	-3	14	-33	-45
12	-47	-9	-15	-3	-48	-61	-120
-9	-5	-34	-5	-26	7	-38	83
-28	0	0	3	15	-101	-6	-23
41	5	16	14	14	100	53	75
20	24	3	-9	-13	-1	67	16
-33	-16	7	1	21	-15	-46	85
-13	-12	-53	-9	-18	-46	-3	-58
-35	16	4	-14	-25	-20	-72	-70
-2	1	11	17	12	63	49	107
-78	10	-26	0	3	-41	60	-89
45	5	-16	1	10	21	-13	119
-66	-15	4	-1	6	-85	-12	-25
37	-16	5	2	8	127	-24	-65
21	10	10	-1	23	-13	-36	-62
-11	-3	19	3	-40	-68	-22	82
22	-1	-1	-11	19	1	-1	-31
-3	-11	0	6	2	-39	58	100
-18	-9	13	1	8	24	-57	-118
-23	-57	-18	-10	4	-3	48	-37
20	27	17	-5	-12	-2	-29	70
-34	-31	23	-8	-17	-19	-83	-52
22	-3	1	-3	-4	14	30	29
-13	15	-7	2	-2	-84	-49	-62
55	-7	26	3	-4	88	25	-68
-57	25	-3	-8	0	5	-35	-112
2	-11	-35	11	3	-74	56	104
31	28	-17	14	22	41	4	-81
31	-11	-18	-25	-3	-64	11	-59
5	43	-2	-3	-18	38	2	-7
33	8	31	11	19	60	74	100
-6	-36	0	2	4	-33	-104	-18
-49	4	11	6	0	9	52	76
43	0	-9	0	-3	-47	-72	-2
-33	0	18	-17	-21	-12	-64	-109
24	5	21	7	-7	118	70	45
-15	38	-16	-3	29	18	21	46
-9	-7	-10	4	1	-128	-36	-12
4	1	18	-6	-50	26	-9	49
-16	2	22	-13	6	16	-52	-121
-3	-4	23	9	-17	25	31	109
-4	-8	-64	-4	15	6	127	-32
34	15	-25	6	12	-48	-14	6
-87	-5	52	-23	-27	13	-82	-6
105	-11	-29	10	21	48	86	120
-23	6	-40	8	19	33	-79	-65
-19	-13	10	-5	-5	-72	-67	-96
63	19	27	3	-21	-71	-34	25
-94	-7	12	1	-5	53	-46	-68
39	22	18	10	25	9	71	94
-13	-23	-31	-17	-2	56	-10	5
1	5	-12	2	-15	-128	-36	25
-19	-18	4	10	20	69	15	-3
-4	-7	43	-15	-40	50	-67	71
-49	-1	9	0	-3	-79	8	12
24	22	-44	11	18	76	116	42
-48	13	-28	-2	4	-47	38	31
0	15	29	2	6	-28	-75	-58
47	-23	20	-5	-11	45	-105	-2
-51	-18	12	-4	-12	5	-25	50
57	33	-68	-2	2	-44	89	65
-1	-14	0	8	8	-69	-14	11
26	-1	-5	-10	6	93	-63	-92
-48	9	6	6	15	21	-10	94
41	0	7	-9	-27	-83	-97	-40
5	-21	-25	-3	-11	-65	75	25
26	15	9	9	17	74	59	-5
-13	-1	14	12	20	38	-8	33
-60	-18	3	-16	-54	-27	-84	-94
-7	-4	16	-17	-19	10	0	-61
-2	-3	-12	13	11	-89	69	18
-47	2	-2	-17	6	25	-36	38
-17	-17	13	1	1	35	-115	-128
-15	-23	-19	-7	-3	32	106	127
44	18	-17	13	23	36	38	93
14	33	-28	6	0	-67	-35	-119
31	-6	18	-4	3	-86	61	99
28	-10	26	1	-2	127	44	37
-45	2	-15	-11	4	-19	-37	-65
28	-12	-16	0	-15	-5	-24	32
-44	-21	15	11	-3	5	-69	-113
-34	10	-2	0	8	-104	-31	-32
28	14	11	1	2	55	36	8
18	-1	-31	-11	-10	40	57	-5
-2	8	6	-2	0	-38	-87	-11
-10	-15	5	-11	-28	-8	8	-32
-18	-26	42	-3	-11	-72	-128	62
-41	2	-32	5	-3	48	87	-71
76	25	-36	5	47	97	88	43
50	9	30	3	-1	-42	-111	-87
24	-13	12	-10	-20	-11	52	112
26	-15	1	-7	4	-3	73	-22
34	25	5	16	6	15	96	13
-89	-30	-22	12	17	7	-77	-59
-9	-16	-5	-12	6	17	-38	-78
24	-2	9	-8	-40	-55	-48	40
-28	24	31	4	10	-75	-8	41
25	22	13	-7	16	127	-7	-36
-32	-7	-8	8	2	-39	-7	-44
-15	-14	1	-6	-12	-31	-31	-6
-57	-14	-8	-12	-19	-31	-68	-29
31	5	40	6	-19	-92	-77	-15
-54	-28	-84	-2	-7	101	74	-60
83	57	-20	17	49	75	-14	-11
-9	-50	23	-11	-29	-72	-115	-85
35	28	12	7	11	78	39	109
-56	-14	-11	-12	0	-21	30	-99
68	-15	-33	11	20	-17	65	100
-71	-14	-11	-4	-10	-29	11	-66
-6	16	-14	-9	-1	18	24	-81
-8	16	31	8	-2	-43	-12	3
46	15	15	-10	-1	82	12	6
-10	-33	0	5	-5	-15	-31	37
-3	-18	-10	-8	12	-4	25	15
-20	13	-6	-1	-22	33	-3	-1
-74	-24	26	-8	-18	-97	-126	-128
14	30	-8	-7	-6	31	3	97
26	18	-45	1	8	49	62	53
93	2	28	11	4	-128	-71	25
-90	-34	14	-6	5	89	-32	-14
-48	5	25	4	-6	67	48	65
-56	-6	-46	3	-2	-65	-44	-109
49	-8	-19	8	4	60	127	127
25	39	-9	-2	-3	-1	-13	17
59	13	24	1	5	-22	-25	96
-77	3	-10	2	-5	-22	-24	-54
-33	8	16	-3	-8	-35	-128	-58
-29	-46	10	-9	-3	29	70	9
103	11	-28	5	23	28	12	-41
-86	-24	-3	0	-10	-12	-80	81
28	11	5	-11	-18	-35	16	-106
-7	3	10	3	0	-31	-17	55
16	-5	-22	-5	-5	34	64	24
47	-6	36	9	-3	2	-20	46
-44	-14	8	7	16	58	13	-31
-17	25	-27	4	27	50	68	73
33	0	-13	-3	-8	-68	-80	-45
-15	-3	45	-6	-21	-47	-89	-79
-4	-11	-26	-8	-7	84	53	-3
1	24	7	11	26	-16	-3	76
-42	-20	-14	9	5	-7	-9	-29
37	52	4	0	-9	49	10	10
-15	-27	5	-24	8	-78	-79	-12
-48	-25	-19	-12	-17	12	11	-68
61	20	-5	0	3	-6	86	18
-4	-9	-11	2	-2	-30	-11	-2
15	19	0	6	3	28	-27	-4
-38	-24	23	1	-18	-128	-107	-83
-40	14	-7	-17	-1	123	23	24
72	6	-25	8	5	60	97	43
-23	-5	-33	1	-12	-98	-36	53
-21	-13	21	-5	-21	63	-69	-128
16	8	-14	8	28	72	49	-13
15	-6	-38	-2	-2	-47	-15	126
-26	3	-36	-5	-21	-66	-59	-58
39	3	-10	2	5	19	73	126
21	-7	-2	-8	-2	-2	-52	-105
-23	-22	-128	-2	10	0	-52	-116
-32	19	-76	9	11	-10	26	53
57	34	-15	-2	-8	-24	11	75
-31	-30	43	-10	-12	15	-30	-30
37	-2	90	-15	-5	-57	-11	0
14	22	89	-2	6	80	-7	-51
33	-50	54	4	2	-3	-21	-44
-34	-1	57	9	-2	-41	-42	-6
-32	-31	35	-11	7	11	60	-31
39	21	17	1	1	37	21	44
-1	7	-8	-2	1	7	-9	7
-25	-23	0	-7	-31	-73	-83	-55
-5	-29	59	2	-23	-32	-120	-33
-57	-18	17	-4	6	26	93	21
66	40	-24	28	45	52	96	81
-57	49	-15	-2	9	-38	-128	-23
10	11	-8	5	-2	21	31	87
-39	-20	27	15	10	5	-1	-73
49	41	-19	-26	-27	-91	1	-37
18	-12	-1	10	24	83	111	94
-29	-8	3	-3	-9	19	5	-61
-2	9	31	0	18	10	-106	-19
-59	-52	-4	-13	-25	-126	-112	-81
32	34	5	8	-10	85	60	23
1	4	-19	-12	7	21	74	-14
20	-18	-1	-15	-33	-44	-86	65
13	-12	7	3	-11	10	20	-68
22	-5	-1	4	25	17	-9	12
-22	10	-10	-5	-6	-91	-8	94
30	3	-24	11	9	68	5	-55
-25	-7	24	0	10	-7	-74	-114
-84	0	-5	-9	-18	14	-31	9
63	1	-6	15	28	25	48	-57
31	5	-4	8	3	-114	27	97
6	6	37	-11	-20	69	-23	-28
-8	-31	-21	1	2	-17	37	68
1	12	4	9	7	92	-40	-34
24	11	-28	-2	11	3	31	16
-16	-14	-87	-2	9	-39	-32	8
20	8	-42	5	-30	-56	-9	10
-12	-19	-12	-6	3	-25	-68	-59
13	-5	14	-9	-27	-53	-43	-12
-64	-32	38	-2	6	120	46	67
43	10	25	-1	24	9	21	21
-17	7	43	23	-10	-83	-27	-69
62	8	24	-26	-2	-13	83	25
-76	-5	22	2	19	43	61	119
11	5	26	-6	-12	28	-57	-30
33	-24	-4	5	7	10	37	-33
-73	-18	-10	5	1	-79	0	127
25	42	-5	-1	-17	26	-17	-105
2	28	-15	8	18	61	59	-57
-1	-27	-67	-2	25	-4	-14	-13
14	11	-15	-17	-30	25	-57	-83
-35	-9	6	11	-2	-114	-53	27
-14	5	12	-6	-10	18	-46	-128
-3	-10	2	-18	-17	22	49	84
-3	-3	23	15	27	18	19	14
13	11	23	-6	-35	-42	-48	-9
-6	-29	15	-9	-14	-52	-59	1
28	5	20	6	9	56	127	115
-24	11	-16	6	23	52	-62	-99
-26	-6	-3	-1	17	38	55	87
-87	-11	13	-6	-32	-128	-97	-96
68	3	-3	-9	-6	67	76	36
72	15	2	35	50	95	93	101
63	9	-13	7	14	-49	-81	-37
-7	-14	-31	-28	-25	-44	-60	-16
-41	2	73	-6	-32	-127	-112	-116
-39	-37	3	-11	-7	95	71	48
66	16	-26	25	75	100	63	47
26	15	3	7	-7	3	57	71
-33	-10	-19	-4	0	-36	-128	-72
-8	-5	4	-7	-47	-106	-32	-121
-21	-21	-4	-18	-15	10	-4	6
19	-3	17	0	16	-1	-13	1
-78	5	-3	-4	-3	21	-9	22
35	40	-19	6	5	-1	0	-106
4	5	31	-5	-29	-41	-77	-30
-21	-25	-39	-7	2	42	88	-62
63	23	-10	16	34	52	17	108
2	-2	9	-2	2	4	-64	82
57	13	1	-5	-15	-12	-91	37
-30	-87	-32	-2	2	-106	73	84
-4	40	2	2	4	106	31	52
44	-5	16	10	4	1	-11	-31
1	-12	-32	-14	-13	-48	-56	-69
-28	45	33	-2	-7	30	-78	-14
-7	0	-5	-7	-10	-81	17	-6
-5	9	10	2	-8	68	0	4
-37	-31	-5	5	2	-14	50	-38
-8	4	1	-10	-5	-60	-56	-56
9	-1	6	-12	-24	24	46	54
34	28	-12	-2	8	16	28	36
1	7	24	-4	-11	-24	-31	-12
74	-16	-5	14	21	12	127	-11
-40	-4	-17	10	15	27	-72	56
-31	4	-42	-9	-5	-36	-16	6
42	-2	-27	0	8	-7	107	45
8	0	32	16	21	54	-120	-79
-33	8	11	-15	-31	35	9	-40
2	-21	1	8	37	-77	-62	15
-43	40	20	-8	-28	17	4	-38
3	-7	-10	-1	6	24	-18	53
21	-14	-25	-15	-20	-44	12	-45
-28	-4	-5	-8	-12	-14	-50	-106
-35	-11	17	4	-2	-11	-6	10
7	-3	15	4	-9	7	5	-19
-3	12	-1	-1	6	-25	-16	5
9	-2	-10	3	4	53	81	64
20	-45	-11	7	11	22	73	-56
3	56	-12	2	1	-29	126	127
-15	-7	23	0	24	0	-91	-16
-68	-49	-16	-15	-23	-51	-90	32
3	23	-5	11	-6	38	20	-75
55	14	4	19	21	18	35	93
6	-11	-9	-20	-16	-93	-40	-56
16	4	38	1	13	77	-11	-54
-50	-32	-18	-5	8	13	-69	-23
-2	15	-5	1	-30	-37	-15	-6
-3	-41	-11	4	10	34	39	15
-6	-4	3	-10	-20	-60	12	-55
28	-8	9	-3	-3	10	-32	28
4	-30	-9	-8	-2	-5	-20	14
-51	12	21	-3	-12	-9	-19	63
-38	0	-11	1	4	3	120	74
77	12	-6	-7	10	23	-56	-70
-77	-25	1	-14	-29	-103	-95	-82
83	19	-26	14	36	127	106	58
39	23	0	31	71	44	57	88
-29	-14	-16	-6	-12	-102	-55	-50
-14	1	19	-11	-12	-27	-105	-75
-34	-30	16	-8	-33	-84	-31	-53
-11	-14	15	-6	-45	-3	-11	30
-16	44	-12	8	8	26	68	104
5	-12	-7	-18	22	41	-58	-53
-9	8	-14	-3	-4	-99	8	-31
20	3	29	-1	-16	101	7	-50
-73	11	33	1	6	8	-72	67
3	-24	-40	3	-17	-63	18	71
9	50	-33	7	37	90	61	54
11	5	-25	-1	-7	-89	-128	-97
-24	-17	19	-3	-17	-35	-67	53
-51	6	-19	-7	21	25	92	46
45	-37	-19	12	-11	53	53	-5
-38	-27	24	3	-9	-87	-85	-97
44	16	3	-11	-2	66	104	82
-59	33	-27	24	45	41	-5	-38
16	-50	22	6	-14	-32	-19	65
-11	11	-11	-15	-6	88	28	115
-12	-39	-10	-14	-2	-76	-68	-71
48	3	33	9	-18	14	59	49
-18	15	-10	-20	28	11	-64	-78
-40	-5	3	-4	-39	-62	-51	-83
27	-16	4	-3	-27	23	45	4
31	6	-18	-5	21	-4	-13	-5
-51	5	-1	7	-18	-58	-71	-88
16	-9	31	-9	4	31	-22	40
-7	-2	-34	11	25	68	127	-128
82	11	-7	3	10	-13	-16	5
9	12	5	0	0	-46	6	84
-7	-33	-29	-9	-8	-120	-88	-18
-19	34	22	0	14	53	62	-18
41	-10	-12	14	12	101	93	96
4	15	-2	3	19	-39	-36	-62
9	15	-7	-9	-23	-34	-59	-46
-51	-24	12	-7	-19	-128	-114	-53
-2	0	33	2	-19	97	-17	-50
-10	11	-8	-4	3	27	88	19
-1	-17	-19	5	37	31	45	28
12	2	-12	5	6	4	-17	-11
-65	-18	23	-11	-26	-73	-128	-76
36	37	-16	5	-13	9	87	64
6	16	12	-6	25	12	41	79
48	-2	-12	2	-1	15	22	75
2	-25	0	-14	-32	-19	-99	21
-95	-35	-22	-11	-17	61	-19	-69
-11	69	12	19	28	9	6	-18
107	-7	26	8	18	-43	116	117
6	20	-32	11	38	66	17	40
-27	0	13	-1	-3	13	-128	-128
-23	-36	-8	-14	-32	-74	33	108
-45	7	-1	-3	-8	17	-88	8
-20	-28	-2	-9	-11	-88	-26	-52
41	-13	36	13	1	43	14	-16
-14	7	-15	-14	-12	48	42	-17
-28	-9	-4	2	17	-10	-31	-50
35	0	5	-1	-25	-60	0	17
-13	4	-11	-11	-6	-9	18	11
45	-4	10	8	11	1	-50	-43
-59	-11	-41	-13	-20	-77	-98	-17
-9	-21	-6	-9	-6	78	74	-96
-3	39	-18	9	26	30	87	127
-13	16	3	6	4	-39	-15	-48
19	15	23	-5	-24	27	-88	-61
21	16	-28	-8	27	16	86	106
7	26	13	17	21	-40	-109	-35
43	-12	1	-4	-16	-9	-43	-82
-29	3	-19	1	0	78	93	86
35	14	11	6	0	-28	21	65
28	12	6	-8	-12	-26	-36	-29
-10	-5	18	-5	-11	-51	-48	-28
-34	-36	5	4	-10	-41	-98	-56
-4	-7	5	0	14	100	57	27
25	-11	-10	1	10	-36	9	22
-26	4	4	2	-6	16	8	-5
12	-8	2	-2	1	-5	28	25
-16	4	-4	-6	-6	-14	-5	-1
-25	-8	15	4	-15	-65	-91	30
80	-17	-14	-1	5	87	95	83
-69	11	-42	-5	17	42	52	-58
-11	-28	15	6	2	-111	-123	21
83	-17	-28	-10	-21	97	86	-84
4	32	-19	-6	7	18	18	29
24	-3	-3	13	13	-46	30	62
-50	-9	17	-5	4	31	-120	-128
-30	-2	-3	0	-8	-74	21	36
-22	-26	-4	7	15	44	40	-9
36	17	-6	-8	-29	16	-28	-51
-46	4	2	-12	-40	-99	-50	-75
-52	-32	21	-6	-10	6	-19	-95
21	1	-2	5	40	58	96	80
72	31	3	17	26	43	80	107
-26	6	10	9	14	0	-15	54
1	8	-11	-9	-16	-28	-3	19
-45	-10	6	-7	-13	-49	-63	-47
-10	-34	8	-13	-11	23	5	-38
4	-6	-10	0	-3	11	40	33
-3	9	1	8	12	26	-7	30
35	-9	0	2	-20	-87	-111	5
13	9	25	-9	-19	25	-58	-28
27	30	-19	6	45	50	123	93
-33	-39	0	-3	-21	22	-41	-24
-14	-20	-11	-9	-12	-38	-69	-66
-15	11	7	3	-7	7	1	97
63	1	20	8	-12	-7	87	79
-10	20	-13	-2	40	-10	-22	44
-25	-3	24	5	-15	-12	-11	81
-6	21	3	-2	7	30	-7	-128
-47	-45	11	-2	-18	-61	-32	-12
60	5	-7	-5	-2	77	66	-29
7	-18	-16	3	19	15	21	9
-95	59	28	-2	-2	-39	-41	-38
43	29	-2	-10	-15	14	33	-97
2	-17	-1	6	5	-26	-46	-26
-15	-15	4	-1	-27	-16	6	10
19	-24	-49	-10	16	-26	-36	-12
-25	7	12	0	12	-52	-62	-8
-7	-5	36	3	-13	78	31	-64
-30	33	-16	6	18	-18	40	-42
-1	-35	-5	2	-11	42	96	6
65	64	-33	13	32	65	55	57
-4	15	24	-20	1	-111	-115	49
-24	5	-4	-4	-9	39	127	42
-17	-40	-18	12	22	-19	-67	33
39	-5	-16	-9	-20	-38	-51	-21
-44	-34	-16	3	7	35	30	51
21	61	10	-8	-5	-58	-115	-90
1	-5	27	-1	-26	36	-6	23
-29	-12	-8	-1	11	8	-31	-63
22	7	0	-3	-12	-41	-18	28
-19	-11	-5	-4	-5	-24	-39	-96
23	-15	-18	-6	-3	-6	18	28
-17	-21	-4	-1	-7	87	-1	-59
-42	14	3	5	7	-3	105	-72
96	12	13	9	1	-6	42	1
-76	0	-16	8	19	-33	26	88
17	30	25	-8	-21	-35	-59	-45
23	-5	-6	7	13	46	49	112
-33	-10	24	-2	-8	55	-94	-45
-9	-24	-26	-9	7	-32	86	0
34	2	0	3	8	-7	-54	4
-18	-20	-2	4	-8	-12	-51	-41
1	-26	-11	-8	15	-3	-26	95
28	9	30	1	-9	-58	-62	-63
-39	-18	-5	-4	-4	35	0	6
24	4	-10	-13	-2	-22	-3	-47
-6	-6	-15	9	-8	81	11	32
15	8	-2	-7	-7	-94	-54	-50
-44	-17	23	0	-22	-15	-88	72
2	-17	-26	0	8	7	26	-64
-7	-1	-41	-5	-2	18	93	66
53	73	6	12	17	50	72	84
20	-4	-12	8	28	-20	-33	-47
-6	9	14	0	-3	6	-28	38
-19	-10	5	5	15	51	103	-64
16	-7	-9	-7	-25	-78	-60	-57
-20	46	18	1	-10	3	20	108
3	-10	-11	-5	16	23	-25	25
5	-14	-18	-14	-17	37	-6	-73
25	1	17	3	38	-6	-39	17
-19	-31	-11	-21	-51	-24	-21	-78
-1	6	5	-8	-16	-43	-37	-22
5	15	15	14	-4	39	33	69
-28	-43	-34	4	11	9	-15	-37
-12	34	10	-16	-20	-45	-74	-20
6	-7	-35	-2	-11	-60	-18	-88
-33	12	-9	3	15	32	4	8
84	11	15	-8	-10	-2	89	67
-11	17	-15	18	14	88	111	-24
-5	-48	10	3	21	-49	-62	64
-36	-42	19	-9	-22	-68	-114	-14
2	-16	-20	-8	-16	120	-5	-1
12	-39	-39	-2	7	-82	9	20
22	19	24	-9	-6	1	35	24
1	24	8	12	26	-35	-45	8
-16	-1	37	16	-4	53	-51	87
-16	-16	-26	-22	3	21	44	-8
5	16	-22	1	-15	-6	-13	27
7	-27	-7	-10	-21	-47	-67	-112
-24	29	-11	-13	-4	-39	74	37
-15	-6	21	12	7	-20	-7	40
49	15	4	3	4	89	-45	-68
4	18	5	-1	-3	-26	45	26
-32	-2	21	-9	-25	-66	-128	-128
88	9	-25	22	49	127	127	108
-27	-49	-24	-4	-9	-35	-87	-62
11	70	-2	-6	17	-92	-16	-56
-17	-18	7	4	-33	88	-31	-46
-21	-34	13	-13	-8	-14	-25	-36
-6	29	15	12	11	-30	-4	18
-12	-12	7	7	4	70	-8	43
15	-1	-9	5	13	-128	24	15
2	2	-2	-10	-3	98	51	19
2	35	-10	4	-2	19	34	52
-56	-3	19	-12	-33	-79	-66	71
11	-18	23	-14	-19	-26	-67	-15
63	-21	-28	9	15	23	46	-128
-52	21	6	9	24	15	45	43
-12	46	0	-13	-18	-50	-43	97
-23	-54	-55	-6	-5	55	27	-32
2	18	-5	29	36	-14	-16	-40
71	-32	4	-18	3	70	105	103
45	56	-28	19	8	-36	-29	-71
-64	-19	10	-10	-6	-49	-128	-66
-73	-43	48	-14	-33	10	-128	-110
61	8	6	9	14	-33	108	106
-2	-34	-3	2	4	5	23	-6
23	22	-6	3	18	101	50	16
-33	-4	-4	-2	-3	-40	-17	15
-17	13	13	-5	-22	-70	-110	-92
20	-38	14	0	-16	28	-47	-19
-39	-14	4	-12	6	19	40	-12
19	47	-9	-2	-12	-73	-17	76
-12	-33	-11	-6	-24	-64	-10	-113
-42	-34	-48	-6	35	121	127	-62
79	85	-14	22	25	-21	119	107
-25	-27	37	-7	-12	32	-106	-15
7	41	-26	-7	-4	-50	16	-78
-2	-44	9	3	16	12	-34	-37
7	2	32	1	-36	31	-59	-33
2	6	-6	-8	1	-95	-24	66
-47	2	34	-4	-15	-8	-88	7
23	-35	-3	3	1	61	65	10
57	-12	-23	0	23	14	-9	-33
-1	30	-2	-2	17	-109	-30	4
-35	-47	-9	3	-18	127	24	15
7	-1	-14	-21	-22	-65	-53	-17
-29	-16	23	-7	-13	-22	-95	-67
5	3	36	24	2	73	111	37
-7	8	-56	-10	38	-10	5	48
29	-16	-15	-4	4	-10	64	-90
54	48	21	11	-7	-25	-103	21
-89	-24	-29	-20	-22	-38	10	-104
72	-18	11	8	0	54	40	84
-1	22	27	7	6	2	6	97
-39	-40	-20	-5	22	-36	-17	-64
36	-6	-21	-5	-7	53	-16	65
-10	-1	14	4	-7	-48	-40	5
-2	1	0	13	-5	19	-6	-24
-11	-2	6	-9	18	33	37	-1
9	0	-6	-3	-36	-68	-4	-12
-24	1	9	-6	-9	22	3	-74
13	10	28	9	14	-7	-28	-26
-27	-5	-41	-4	4	43	127	114
-13	-8	-11	-11	-12	27	-29	22
36	47	41	4	-28	-69	-106	-13
-35	-13	-50	-18	3	-3	57	76
30	6	2	12	0	-81	-103	-91
45	81	5	15	27	33	121	71
-27	-65	8	5	18	101	-6	20
21	-23	7	-2	-11	-51	61	83
8	2	-18	-14	-24	-40	-58	-64
-34	-16	28	-1	16	59	-5	-39
-3	12	-8	0	8	-66	-65	-83
20	23	24	-3	-22	35	-34	-14
-31	-21	-13	-3	21	-8	39	44
8	-10	-5	-3	-28	-42	-42	-40
-20	11	-9	2	-6	33	48	23
-12	-34	-12	-8	-14	-19	-93	-71
7	51	7	5	18	0	74	-14
1	-56	-8	7	33	84	12	-38
-55	35	-11	15	9	-21	-21	-37
52	9	16	-31	-29	-49	6	105
20	-12	5	9	-5	-5	35	41
40	-4	-23	1	-7	-4	-3	-105
3	44	-29	-8	18	35	127	114
41	-3	-9	8	15	-29	-128	-44
-11	38	39	-11	-36	-33	-34	-79
-36	-3	11	-6	0	9	68	92
36	6	16	1	10	49	-45	42
-123	-50	-41	-3	18	34	9	-63
51	19	-14	12	0	-9	16	-10
-29	2	3	-17	-33	-86	-128	-28
-11	-5	22	-8	-6	-2	-15	-77
13	22	1	15	-2	-7	65	76
-46	-17	-3	-4	-3	68	-54	-24
12	3	7	3	18	-45	71	73
18	-22	-22	0	3	55	29	-69
0	30	-27	3	1	-61	-58	-127
-21	-48	13	-7	-6	33	14	70
97	2	27	7	-13	-3	-1	97
81	2	-30	-9	-2	-79	114	6
27	56	-7	19	33	105	81	65
-35	21	30	9	0	-53	-87	-53
-56	-65	19	-2	26	122	-128	-128
13	4	-17	-13	-37	-51	45	53
0	6	17	6	19	-15	3	-16
30	-21	-32	-10	1	-18	-29	17
-47	44	-6	-15	-25	-17	-82	-69
-43	-36	23	-8	-9	-50	-68	-55
-15	-14	14	1	-20	43	7	-3
18	-13	5	2	7	45	35	49
-33	15	-25	-2	16	-34	14	-40
-13	2	-1	-1	-30	-74	-81	-35
19	4	30	-4	16	79	21	42
-39	-20	-24	8	-4	-18	38	48
60	-14	-38	-1	-4	-35	4	-85
-16	25	16	9	13	97	106	112
-29	-14	8	-9	-8	-126	-44	-27
68	-25	13	12	-4	12	5	100
3	11	0	-7	26	100	42	6
-41	-27	-22	3	3	-14	-56	-122
37	20	8	-8	-1	-28	-29	-53
-27	0	-5	-19	-31	-55	-60	-14
-10	-12	1	9	-19	-37	0	32
6	-1	8	5	30	109	63	-12
-14	2	-14	3	-4	-18	-57	19
34	-21	-3	-9	5	-14	-37	-104
-89	18	22	-11	-6	-64	-110	45
-24	-5	3	11	6	-22	48	18
16	59	13	11	14	68	-32	66
-92	-20	-25	-18	6	28	-27	-47
113	2	-27	14	-1	-25	97	42
9	-12	25	-3	-15	-61	-107	-32
-12	13	31	-11	-9	39	-27	-14
-42	-4	-14	4	13	2	69	-105
16	-3	-27	0	9	60	43	26
57	-2	-12	-6	-28	-88	-120	-7
-73	-17	-4	-4	-4	-29	-11	-61
14	38	17	6	20	107	55	-31
-6	2	-14	5	-12	-53	-61	-1
3	-4	15	-9	-18	-48	10	-2
3	-46	20	-4	-19	67	-23	-31
6	20	2	13	39	7	121	80
26	53	-7	16	36	12	99	107
-6	13	-29	-14	-25	-35	-107	-102
-12	-31	0	-6	-18	-83	-41	-54
-26	-2	31	0	-23	68	29	121
19	21	-21	5	23	42	63	78
-12	-14	12	-6	4	16	-92	-128
94	12	-5	8	2	2	127	127
-16	15	-16	-1	4	-24	-98	-16
-65	-14	20	-1	-9	-50	-121	-128
-27	-4	14	-13	-4	45	21	32
38	-35	-7	3	10	52	-20	-56
29	-15	-4	-6	-3	-100	-49	21
-5	12	20	-10	-42	-3	-30	-33
-22	-4	-5	3	31	107	38	76
-2	-10	-19	2	18	-66	-73	-76
6	13	-25	-15	-26	64	17	-43
49	-3	7	9	24	-52	-4	28
-10	-5	17	5	4	-20	22	111
-42	-5	-22	-2	-9	104	77	40
5	-26	-45	-4	9	-84	-88	-88
-25	18	-12	4	-15	18	110	75
79	58	-18	28	28	-18	33	26
-4	31	43	-7	0	-16	-116	15
12	-47	19	8	-2	8	6	33
-9	22	6	-17	-17	-45	-105	-7
-25	-39	16	-3	7	63	84	-5
-1	-13	-6	5	1	0	19	-2
18	17	13	-8	-44	-24	-42	-23
3	-35	0	-4	22	-67	-66	-33
-7	8	6	-2	-30	15	3	-8
-3	7	-8	-2	23	56	68	15
15	6	-5	4	0	4	-18	51
-44	-33	18	-15	-24	-95	-102	-126
-27	5	-21	2	2	74	49	77
25	-1	-48	5	22	33	88	-46
-53	-7	-5	15	15	-9	-54	-85
84	7	-33	-8	14	42	124	104
-29	4	-12	-5	14	-25	-110	-40
-17	-7	18	-12	-24	-50	-89	-49
32	23	5	7	12	13	47	69
-49	-20	10	-6	-13	-2	-57	-101
6	-30	-14	-1	-11	3	46	50
-4	1	-15	-6	-26	-81	-25	14
-14	-3	15	-9	-16	-5	-54	-61
-16	-10	18	2	10	72	-34	-16
19	-2	-10	4	21	10	99	1
-8	2	-1	13	2	20	-17	-10
2	18	8	-11	-10	-22	-45	40
-45	-23	-14	-2	-20	-55	-41	-80
45	41	0	6	1	47	4	37
-36	-39	-42	-15	14	-82	56	53
45	24	20	17	15	65	69	82
-47	-30	28	-4	-9	65	-65	-72
12	18	-15	-6	-4	-43	13	19
44	14	-22	3	6	-13	-104	-53
29	-9	-4	14	19	-90	-25	-51
-50	5	18	-8	-8	102	-42	-56
7	0	18	6	-8	-18	-107	-117
-27	-1	-5	-19	-37	-50	47	36
10	-5	2	-4	8	56	27	51
15	-14	-19	1	5	-18	-17	-25
-25	3	3	-11	-21	-94	-69	-90
14	21	19	9	7	95	31	-32
37	-2	-17	-9	15	22	46	32
-14	7	2	5	-15	-30	-7	-5
-28	-10	-29	-14	13	-11	91	116
26	-12	25	12	-7	-60	-128	16
-72	-3	-9	-9	-25	21	-4	-6
96	26	-23	15	36	11	127	95
-25	-3	18	8	-14	27	4	61
-4	3	12	-11	-5	0	14	-95
63	1	0	5	15	-35	-5	20
8	15	7	2	13	87	-14	-41
-18	-24	6	-12	1	-27	-64	-81
-39	-21	-5	-6	-26	-3	9	1
-19	-9	-25	-8	22	18	-6	-15
1	3	3	2	-34	-62	-1	29
15	-3	-2	-4	-1	-40	-55	-41
-26	-30	-12	-5	6	29	10	0
-1	2	12	4	-15	-30	8	-2
4	-17	27	-1	-1	-38	-34	-72
-72	-7	-11	-5	-3	127	76	79
34	24	-28	19	46	-13	-62	-63
34	23	-28	1	8	-79	26	48
78	15	8	3	14	45	127	127
-7	15	6	-4	-13	-19	-100	-79
-18	16	28	-1	-12	-11	-63	-27
-64	-31	18	-4	-21	-69	-64	-67
-20	-46	5	-14	-39	40	-42	48
48	-2	-13	12	49	65	37	-72
-15	-44	-13	0	2	54	127	94
-8	17	-3	-11	-15	-45	-45	-45
5	-4	-7	-2	5	-42	-55	19
-3	-9	-3	6	10	-32	-1	-33
8	32	5	-1	-51	8	22	55
-27	-11	16	-7	5	5	-51	-63
-31	-13	-20	7	1	-62	87	70
0	8	5	-5	13	82	10	-42
-31	6	7	0	8	-17	-32	-100
27	2	-1	-8	-8	11	88	118
63	30	-34	7	19	31	61	21
17	-43	-9	5	6	-45	-80	-26
-10	46	20	1	-6	-101	-66	-48
-9	-14	41	-11	-26	127	-79	34
-67	-9	15	4	14	35	20	-55
60	19	-5	8	1	-74	99	119
20	-49	-26	-19	5	-4	-38	18
-24	10	-1	-4	5	41	-29	-51
-21	8	-13	8	20	24	-50	-65
-27	-22	-2	-20	-20	-21	-44	-1
11	-5	-6	-12	-24	-57	-21	20
17	25	10	18	-7	21	53	-34
-9	-13	-21	-19	16	-30	28	15
-39	16	23	2	-38	5	-110	-19
13	-18	-4	4	12	29	43	-46
14	4	-37	4	33	8	87	88
-41	4	-1	-1	-11	-25	-62	9
16	17	-18	4	10	-72	114	127
-53	-24	24	-3	-14	51	-78	-6
34	7	8	4	25	27	-16	9
16	-15	5	16	22	59	81	90
-56	-15	-7	-17	-26	-28	-121	-51
-13	12	17	14	-20	3	2	-20
2	-13	-20	-15	-10	-2	66	33
21	35	3	8	-4	-43	-72	-17
-1	-8	10	-5	-11	-7	9	-36
11	2	-2	-8	5	22	4	-22
-13	-7	9	6	-3	-8	-12	-39
4	24	12	-11	-12	-2	-92	-84
17	-1	-4	7	12	-35	118	38
-12	7	1	0	19	89	-22	0
7	-5	6	1	-21	-54	-19	-48
-9	-2	-20	-6	-7	6	58	35
-76	-17	7	1	-3	-43	-5	46
62	5	-24	7	25	74	107	35
-29	16	-30	14	38	86	64	12
-4	-26	-3	-9	-12	-102	-106	-71
-25	8	15	-10	-33	-3	-128	-88
-21	-8	3	0	13	-37	-58	14
11	7	1	2	-1	1	83	30
-17	-32	-31	-3	2	59	6	2
10	-7	4	3	-11	-16	-26	-80
16	-3	-5	-10	-13	-18	17	38
-6	-15	-6	3	4	-89	-90	-54
8	8	3	-9	-23	49	-20	93
-30	-9	0	-7	6	39	-18	-100
77	-3	-7	8	-10	-30	9	100
-47	-7	35	-7	6	-82	37	51
40	11	-5	5	10	49	98	111
66	9	-9	15	27	86	-18	62
-8	12	9	3	26	-65	-72	-64
-93	-10	-38	-19	-42	2	-27	-59
-20	-28	2	7	-31	-41	-13	12
40	17	-15	-2	54	-9	-19	-31
-19	-13	9	-7	-27	21	-35	-55
3	-28	-6	-5	-12	-29	-25	-17
34	10	-22	2	2	76	34	-14
14	0	-9	14	1	-11	66	2
-33	5	-5	-7	-3	-44	-31	-1
-17	7	36	1	-13	-28	-112	-128
-74	-26	8	-20	-12	-32	-11	-11
108	10	16	12	1	67	115	127
-63	38	-11	4	16	-15	-7	-54
-10	-10	2	5	10	9	42	19
-6	11	16	-1	5	-57	-68	-113
-38	-7	19	-7	-25	37	34	49
10	-5	-14	-10	16	-32	41	65
99	6	-9	1	-18	92	83	-10
-26	23	5	10	28	11	3	-20
-57	-24	0	-7	-8	-89	-112	-89
31	16	9	4	2	-3	18	23
-47	-24	-11	-3	10	57	-7	-31
96	-26	12	-9	0	-28	-19	62
-6	4	6	1	-13	-21	-4	-78
-9	-13	-15	15	11	91	59	95
0	-5	15	-11	0	-110	-117	-32
29	30	13	15	5	108	106	85
-34	-38	-26	-17	5	21	17	-101
95	24	5	6	10	-71	3	60
-32	-28	14	-9	-29	-52	-59	67
-62	23	23	10	5	52	-10	-113
81	24	-29	-3	19	-21	68	95
-93	-18	13	-2	12	-35	-32	-128
18	16	2	-1	-19	57	-30	-39
12	4	-6	7	-17	-26	52	109
14	-6	16	23	52	17	-65	-4
-13	4	-4	-27	-48	12	-6	-40
22	12	-19	-17	0	-21	-21	3
-28	-18	0	5	-19	-55	-98	-102
-31	2	-1	-11	-36	-19	25	-36
17	-2	4	5	-7	0	3	-58
11	-14	8	7	22	79	-2	-19
40	-20	-1	-13	-5	-60	-14	-55
24	15	-1	4	4	84	90	109
-42	41	-17	7	13	10	26	111
51	2	4	4	-3	-26	-42	-37
39	-13	-3	0	11	-15	57	-64
25	19	16	7	6	-57	-37	0
-5	-5	37	-6	-15	51	33	-66
-50	28	-14	10	3	0	-47	17
0	-14	-20	-5	11	-45	-22	18
-18	-16	0	0	3	10	-21	-19
36	-20	-15	-17	-16	42	61	-1
-30	53	-9	-7	-13	-1	-9	-42
-18	3	-1	3	11	-120	-71	-28
-18	-2	-10	-13	-33	60	-9	12
-7	-13	-3	9	17	39	-14	-49
54	-10	13	11	-6	-45	-4	43
-60	-1	-3	-13	-13	37	18	88
30	-3	-7	-13	-10	-55	-8	64
-85	-13	-37	12	2	-35	40	0
58	-7	-4	-3	14	75	127	47
-3	-3	-20	10	42	39	7	-53
24	-19	11	1	-19	11	-128	-24
-67	27	26	0	-7	-78	68	118
6	-1	-23	8	-7	11	-32	41
-59	1	51	-18	-33	-23	-58	35
38	-21	-31	11	26	97	73	84
34	-3	-38	-5	38	-23	-116	-86
-17	-7	1	6	0	-10	-14	-29
5	2	19	6	-31	-35	-89	-35
-54	8	-8	-37	-36	-96	-88	-104
34	-5	30	-1	-17	36	36	42
4	-19	0	3	20	-19	-9	32
13	24	-10	6	16	94	38	-24
-70	4	-10	5	-9	-46	51	-67
91	3	5	-7	-4	-3	-81	70
-42	-27	-8	-13	-26	-118	4	-106
72	22	-19	8	24	49	82	76
15	34	22	-3	22	112	-5	-91
-9	-17	-13	6	11	14	76	100
-5	44	20	0	-6	-72	-115	-72
12	0	41	-3	-11	-42	15	33
-1	3	-29	-9	-2	42	105	106
-37	-13	-4	8	-19	-90	-110	-83
1	-13	7	5	24	100	18	15
-26	5	-13	-7	3	81	-7	-53
-12	-2	39	18	-18	-103	-92	-14
0	24	-3	-26	-8	3	-1	-44
-9	-15	-5	5	-21	35	36	24
23	-18	-18	-15	11	-48	-23	28
5	6	25	5	-6	-6	-114	-32
30	-8	23	11	0	-42	37	-97
36	32	-19	20	17	71	115	107
28	-2	-67	-27	0	-25	-104	-128
31	-10	3	9	5	-6	127	113
-23	22	41	5	0	37	-98	38
-65	-54	-13	-2	12	-89	-24	63
10	46	-14	-3	-22	92	123	69
19	-22	-9	6	36	-26	-32	3
-30	-36	-5	-1	-27	8	-25	-80
-68	-20	-27	-13	-12	21	-22	-88
16	-9	-21	-12	-7	-83	-72	-21